0.000000000000000000e+00
0.000000000000000000e+00
7.117432309803531365e-02
1.418435261638428813e-01
2.120127059351726850e-01
2.816868708118475673e-01
3.508706477260212786e-01
4.195685929635158407e-01
4.877851999398030158e-01
5.555248992000051400e-01
6.227920584188951780e-01
6.895909824008957800e-01
7.559259130800799475e-01
8.218010295201715332e-01
8.872204479145434641e-01
9.521882215862207399e-01
1.016708340987876102e+00
1.080784733701835698e+00
1.144421264440073083e+00
1.207621771134037125e+00
1.270390047486866347e+00
1.332729547873578335e+00
1.394643668313411800e+00
1.456135775752584793e+00
1.517209208064295378e+00
1.577867274048721846e+00
1.638113253433021166e+00
1.697950396871332313e+00
1.757381925944771162e+00
1.816411033161436261e+00
1.875040881956403283e+00
1.933274606691729902e+00
1.991115312656452474e+00
2.048566076066587804e+00
2.105629944065131376e+00
2.162309934722059346e+00
2.218609037034328324e+00
2.274530210925873153e+00
2.330076387247610015e+00
2.385250467236613936e+00
2.440055230992388413e+00
2.494493290326481816e+00
2.548567235729158664e+00
2.602279641967858659e+00
2.655633068087198900e+00
2.708630057408973890e+00
2.761273137532152422e+00
2.813564820332881578e+00
2.865507601964483619e+00
2.917103962857459099e+00
2.968356367719482858e+00
3.019267265535407585e+00
3.069839089567262924e+00
3.120074257354253255e+00
3.169975170712761692e+00
3.219544215736344750e+00
3.268783762795738568e+00
3.317696166538854907e+00
3.366283765890780266e+00
3.414548884053780320e+00
3.462493828507295035e+00
3.510120891007941335e+00
3.557432347589513988e+00
3.604430458562982498e+00
3.651117443391110218e+00
3.697495345869348693e+00
3.743566214945971193e+00
3.789332099767666495e+00
3.834795038611121143e+00
3.879957058883022114e+00
3.924820177120053266e+00
3.969386398988897113e+00
4.013657719286237047e+00
4.057636121938752005e+00
4.101323580003121805e+00
4.144722055666022698e+00
4.187833500244132701e+00
4.230659854184125379e+00
4.273203047062673399e+00
4.315464997586450302e+00
4.357447613592125180e+00
4.399152792046368887e+00
4.440582419045846940e+00
4.481738369817228396e+00
4.522622508717176082e+00
4.563236689232353704e+00
4.603582753979424069e+00
4.643662534705047307e+00
4.683477852285885312e+00
4.723030516728591977e+00
4.762322327169827396e+00
4.801355071876244551e+00
4.840130528244497299e+00
4.878650459309581855e+00
4.916916528580576262e+00
4.954930371209551154e+00
4.992693631160035395e+00
5.030207943890598443e+00
5.067474936354844139e+00
5.104496227001419584e+00
5.141273425774008032e+00
5.177808134111330673e+00
5.214101944947147516e+00
5.250156442710256499e+00
5.285973203324495273e+00
5.321553794208739419e+00
5.356899774276901560e+00
5.392012693937935808e+00
5.426894095095828874e+00
5.461545511149613397e+00
5.495968466993353729e+00
5.530164479016157486e+00
5.564135055102168437e+00
5.597881694630568283e+00
5.631405888475577548e+00
5.664709119006456461e+00
5.697792860087500522e+00
5.730658577078049376e+00
5.763307726832473499e+00
5.795741757700187513e+00
5.827962109525642198e+00
5.859970213648327153e+00
5.891767492902770798e+00
5.923355361618538595e+00
5.954735225620235717e+00
5.985908482227505267e+00
6.016876520255028282e+00
6.047640720012525506e+00
6.078202453304753838e+00
6.108563083315968534e+00
6.138723931464336481e+00
6.168686279148072771e+00
6.198451409572928839e+00
6.228020599267565238e+00
6.257395118083548979e+00
6.286576229195356191e+00
6.315565189100368571e+00
6.344363247618879598e+00
6.372971647894084768e+00
6.401391626392092249e+00
6.429624412901915775e+00
6.457671230535476425e+00
6.485533295727604397e+00
6.513211818236036343e+00
6.540708001141417149e+00
6.568023040847299931e+00
6.595158127080144261e+00
6.622114442889318831e+00
6.648893164647098786e+00
6.675495462048667505e+00
6.701922498112115711e+00
6.728175429178444134e+00
6.754255404911558180e+00
6.780163568298271493e+00
6.805901055648307718e+00
6.831468996594294296e+00
6.856868514091771338e+00
6.882100724419182747e+00
6.907166737177881544e+00
6.932067655292128094e+00
6.956804575009090108e+00
6.981378585898845301e+00
7.005790770854376959e+00
7.030042206091574819e+00
7.054133961149241294e+00
7.078067098889080810e+00
7.101842675495707802e+00
7.125461740476646710e+00
7.148925336662325769e+00
7.172234500206084107e+00
7.195390260584166420e+00
7.218393640595724747e+00
7.241245656362822913e+00
7.263947317330427644e+00
7.286499626266415675e+00
7.308903602648102016e+00
7.331160253807014193e+00
7.353270523850515161e+00
7.375235351226026026e+00
7.397055669656859678e+00
7.418732408142221679e+00
7.440266490957209378e+00
7.461658837652812792e+00
7.482910363055914615e+00
7.504021977269290211e+00
7.524994585671605840e+00
7.545829088917419547e+00
7.566526382937186490e+00
7.587087358937246506e+00
7.607512903399839210e+00
7.627803898083092449e+00
7.647961220021024964e+00
7.667985741523553500e+00
7.687878330176480368e+00
7.707639848841504993e+00
7.727271155656217694e+00
7.746773104034099688e+00
7.766146542664527530e+00
7.785392315512766892e+00
7.804511261819977896e+00
7.823504216103211562e+00
7.842372008155413354e+00
7.861115463045417862e+00
7.879735401117955895e+00
7.898232637993645611e+00
7.916607984569002276e+00
7.934862247016431169e+00
7.952996226784230238e+00
7.971010720596590104e+00
7.988906520453591398e+00
8.006684413631212749e+00
8.024345182681315691e+00
8.041889605431665089e+00
8.059318454985909597e+00
8.076632499723595870e+00
8.093832503300157910e+00
8.110919224646924164e+00
8.127893417971119305e+00
8.144755832755851799e+00
8.161507213760131663e+00
8.178148301018854482e+00
8.194679829842810292e+00
8.211102530818683576e+00
8.227417129809047935e+00
8.243624347952369646e+00
8.259724901663011210e+00
8.275719502631222468e+00
8.291608857823145939e+00
8.307393669480822140e+00
8.323074635122177156e+00
8.338652447541033297e+00
8.354127794807103768e+00
8.369501360265992673e+00
8.384773823131601134e+00
8.399945981227956437e+00
8.415018567274293204e+00
8.429992203756251357e+00
8.444867510359722829e+00
8.459645103970853341e+00
8.474325598676037075e+00
8.488909605761925548e+00
8.503397733715420514e+00
8.517790588223675741e+00
8.532088772174097002e+00
8.546292885654345639e+00
8.560403525952331449e+00
8.574421287556219795e+00
8.588346762154424496e+00
8.602180538635616713e+00
8.615923203088716065e+00
8.629575338802895956e+00
8.643137526267581805e+00
8.656610343172454591e+00
8.669994364407441978e+00
8.683290162062728967e+00
8.696498305428750797e+00
8.709619360996194715e+00
8.722653892456001756e+00
8.735602460699363192e+00
8.748465623817725856e+00
8.761243937102786816e+00
8.773937953046496929e+00
8.786548221341055509e+00
8.799075288878920986e+00
8.811519699752798473e+00
8.823881995255646871e+00
8.836162713880680641e+00
8.848362391321362708e+00
8.860481560471409779e+00
8.872520751424790575e+00
8.884480491475727604e+00
8.896361305118695384e+00
8.908163714048418669e+00
8.919888237159877775e+00
8.931535390548301478e+00
8.943105687509177670e+00
8.954599638538239148e+00
8.966017751331476049e+00
8.977360530785126969e+00
8.988628478995687843e+00
8.999822095259903065e+00
9.010941876074770818e+00
9.021988315137541292e+00
9.032961903345716692e+00
9.043863128797054785e+00
9.054692476789560018e+00
9.065450429821495959e+00
9.076137467591372854e+00
9.086754066997954737e+00
9.097300702140261208e+00
9.107777844317562099e+00
9.118185962029377478e+00
9.128525520975482976e+00
9.138796984055906236e+00
9.149000811370925135e+00
9.159137460221073113e+00
9.169207385107132069e+00
9.179211037730141243e+00
9.189148866991388331e+00
9.199021318992413043e+00
9.208828837035012427e+00
9.218571861621230212e+00
9.228250830453365694e+00
9.237866178433970177e+00
9.247418337665846977e+00
9.256907737452053198e+00
9.266334804295894401e+00
9.275699961900931712e+00
9.285003631170980043e+00
9.294246230210104542e+00
9.303428174322620592e+00
9.312549876013100913e+00
9.321611744986368464e+00
9.330614161654645855e+00
9.339557473478205196e+00
9.348442050399917491e+00
9.357268260913375713e+00
9.366036471848261158e+00
9.374747048370347002e+00
9.383400353981496522e+00
9.391996750519668424e+00
9.400536598158906187e+00
9.409020255409350497e+00
9.417448079117228588e+00
9.425820424464861347e+00
9.434137644970661540e+00
9.442400092489130259e+00
9.450608117210864023e+00
9.458762067662545903e+00
9.466862290706952621e+00
9.474909131542952778e+00
9.482902933705503301e+00
9.490844039065656546e+00
9.498732787830551416e+00
9.506569518543422248e+00
9.514354568083591701e+00
9.522088271666476089e+00
9.529770962843578275e+00
9.537402973502498327e+00
9.544984633866924639e+00
9.552516272496633931e+00
9.559998216287498352e+00
9.567430790471481927e+00
9.574814318616637010e+00
9.582149122627106053e+00
9.589435522743125162e+00
9.596673837541022323e+00
9.603864383933215620e+00
9.611007477168213242e+00
9.618103430830615252e+00
9.625152556841115370e+00
9.632155165456493862e+00
9.639111565269626425e+00
9.646022063209477082e+00
9.652886964541101733e+00
9.659706572865649932e+00
9.666481190120359557e+00
9.673211116578560365e+00
9.679896650849672213e+00
9.686538089879210389e+00
9.693135728948774954e+00
9.699689861676064950e+00
9.706200780014862417e+00
9.712668774255044823e+00
9.719094133022583293e+00
9.725477143279535497e+00
9.731818090324050985e+00
9.738117257790374737e+00
9.744374927648838280e+00
9.750591380205865022e+00
9.756766894103970245e+00
9.762901746321762886e+00
9.768996212173940208e+00
9.775050565311291351e+00
9.781065077720693779e+00
9.787040019725123940e+00
9.792975659983639503e+00
9.798872265491398892e+00
9.804730101579643531e+00
9.810549431915712049e+00
9.816330518503031399e+00
9.822073621681120414e+00
9.827779000125588027e+00
9.833446910848136824e+00
9.839077609196557717e+00
9.844671348854735271e+00
9.850228381842644154e+00
9.855748958516347358e+00
9.861233323494543512e+00
9.866681698431966296e+00
9.872094306002592745e+00
9.877471368944094721e+00
9.882813109035847532e+00
9.888119747098922829e+00
9.893391502996092157e+00
9.898628595631826954e+00
9.903831242952296776e+00
9.908999661945372850e+00
9.914134068640622743e+00
9.919234678109315695e+00
9.924301704464420837e+00
9.929335360860601867e+00
9.934335859494227705e+00
9.939303411603365390e+00
9.944238227467776525e+00
9.949140516408929713e+00
9.954010486789984569e+00
9.958848346015807707e+00
9.963654300532960306e+00
9.968428555829705218e+00
9.973171316436003409e+00
9.977882785923513964e+00
9.982563166905599417e+00
9.987212661037316863e+00
9.991831469015425071e+00
9.996419790578382703e+00
1.000097782450634831e+01
1.000550576862117680e+01
1.001000381978642473e+01
1.001447217390734679e+01
1.001891102593089933e+01
1.002332056984573327e+01
1.002770099868220655e+01
1.003205250451236985e+01
1.003637527844997379e+01
1.004066951065047064e+01
1.004493539031101079e+01
1.004917310567044630e+01
1.005338284400932558e+01
1.005756479164989692e+01
1.006171913395611028e+01
1.006584605533361021e+01
1.006994573922974467e+01
1.007401836813356155e+01
1.007806412357580328e+01
1.008208318612891752e+01
1.008607573540704827e+01
1.009004195006603766e+01
1.009398200780342947e+01
1.009789608535846561e+01
1.010178435851208789e+01
1.010564700208693800e+01
1.010948418994735398e+01
1.011329609499937909e+01
1.011708288919074761e+01
1.012084474351090257e+01
1.012458182799097806e+01
1.012829431170381334e+01
1.013198236276394404e+01
1.013564614832760569e+01
1.013928583459273369e+01
1.014290158679896159e+01
1.014649356922762458e+01
1.015006194520175420e+01
1.015360687708608545e+01
1.015712852628704610e+01
1.016062705325277093e+01
1.016410261747308752e+01
1.016755537747952864e+01
1.017098549084531989e+01
1.017439311418539383e+01
1.017777840315637583e+01
1.018114151245659293e+01
1.018448259099637809e+01
1.018780172158158770e+01
1.019109902327987349e+01
1.019437463458946880e+01
1.019762869336637756e+01
1.020086133682437080e+01
1.020407270153499013e+01
1.020726292342754782e+01
1.021043213778912317e+01
1.021358047926456791e+01
1.021670808185650081e+01
1.021981507892531127e+01
1.022290160318915930e+01
1.022596778672397200e+01
1.022901376096344883e+01
1.023203965669905458e+01
1.023504560408002817e+01
1.023803173261337740e+01
1.024099817116387534e+01
1.024394504795407101e+01
1.024687249056427696e+01
1.024978062593257988e+01
1.025266958035483178e+01
1.025553947948465705e+01
1.025839044833345248e+01
1.026122261127037660e+01
1.026403609202236211e+01
1.026683101367411410e+01
1.026960749866810119e+01
1.027236566880456614e+01
1.027510564524151881e+01
1.027782754849473967e+01
1.028053149843777803e+01
1.028321761430195380e+01
1.028588601467635399e+01
1.028853681750783799e+01
1.029117014010103404e+01
1.029378609911833919e+01
1.029638481057991939e+01
1.029896638986371293e+01
1.030153095170542343e+01
1.030407861019852866e+01
1.030660947879427169e+01
1.030912367030166976e+01
1.031162129688750362e+01
1.031410247007632996e+01
1.031656730075046902e+01
1.031901589915001693e+01
1.032144837487283340e+01
1.032386483687455048e+01
1.032626539346857086e+01
1.032865015232606432e+01
1.033101922047597121e+01
1.033337270430500077e+01
1.033571070955763638e+01
1.033803334133612140e+01
1.034034070410047867e+01
1.034263290166849636e+01
1.034491003721572788e+01
1.034717221327550440e+01
1.034941953060068087e+01
1.035165207276085475e+01
1.035386992936690653e+01
1.035607319411657556e+01
1.035826196025275436e+01
1.036043632056349217e+01
1.036259636738198076e+01
1.036474219258657570e+01
1.036687388760077511e+01
1.036899154339323559e+01
1.037109525047776160e+01
1.037318509891331431e+01
1.037526117830400452e+01
1.037732357779909442e+01
1.037937238609299939e+01
1.038140769142528974e+01
1.038342958158068186e+01
1.038543814388905240e+01
1.038743346522542232e+01
1.038941563200997109e+01
1.039138473020802600e+01
1.039334084533006930e+01
1.039528406243173464e+01
1.039721446611380884e+01
1.039913214052222834e+01
1.040103716934808453e+01
1.040292963582761843e+01
1.040480962274222776e+01
1.040667721241845811e+01
1.040853248672800824e+01
1.041037552708773006e+01
1.041220641445962869e+01
1.041402522935086061e+01
1.041583205181373017e+01
1.041762696144570377e+01
1.041941003738939031e+01
1.042118135833255721e+01
1.042294100250811972e+01
1.042468904769414806e+01
1.042642557121386737e+01
1.042815064993564711e+01
1.042986436027301522e+01
1.043156677818465283e+01
1.043325797917438713e+01
1.043493803829120381e+01
1.043660703012923818e+01
1.043826502882777518e+01
1.043991210807125825e+01
1.044154834108927865e+01
1.044317380065658085e+01
1.044478855909305892e+01
1.044639268826376544e+01
1.044798625957889904e+01
1.044956934399381510e+01
1.045114201200901682e+01
1.045270433367016594e+01
1.045425637856806844e+01
1.045579821583868885e+01
1.045732991416314306e+01
1.045885154176769483e+01
1.046036316673357192e+01
1.046186485943956335e+01
1.046335668415833631e+01
1.046483870313130460e+01
1.046631097831235913e+01
1.046777357136786080e+01
1.046922654367664052e+01
1.047066995633000452e+01
1.047210387013172728e+01
1.047352834559805501e+01
1.047494344295770752e+01
1.047634922215187636e+01
1.047774574283422311e+01
1.047913306437087932e+01
1.048051124584045368e+01
1.048188034603402130e+01
1.048324042345513085e+01
1.048459153631980278e+01
1.048593374255652932e+01
1.048726709980627447e+01
1.048859166542247046e+01
1.048990749647102838e+01
1.049121464973032225e+01
1.049251318169120495e+01
1.049380314855699581e+01
1.049508460624348949e+01
1.049635761037895065e+01
1.049762221630411574e+01
1.049887847907219296e+01
1.050012645344886053e+01
1.050136619391227200e+01
1.050259775465304735e+01
1.050382118957428546e+01
1.050503655229154809e+01
1.050624389613287413e+01
1.050744327413877421e+01
1.050863473906222900e+01
1.050981834336868914e+01
1.051099413923608239e+01
1.051216217855480295e+01
1.051332251292771680e+01
1.051447519367016348e+01
1.051562027180995607e+01
1.051675779808737410e+01
1.051788782295517422e+01
1.051901039657857950e+01
1.052012556883528838e+01
1.052123338931546925e+01
1.052233390732176233e+01
1.052342717186928134e+01
1.052451323168560648e+01
1.052559213521079684e+01
1.052666393059737793e+01
1.052772866571034704e+01
1.052878638812717504e+01
1.052983714513780633e+01
1.053088098374464998e+01
1.053191795066259218e+01
1.053294809231899265e+01
1.053397145485367581e+01
1.053498808411894316e+01
1.053599802567956623e+01
1.053700132481278828e+01
1.053799802650832262e+01
1.053898817546835787e+01
1.053997181610754907e+01
1.054094899255302842e+01
1.054191974864439629e+01
1.054288412793372665e+01
1.054384217368556165e+01
1.054479392887691880e+01
1.054573943847235284e+01
1.054667874633098634e+01
1.054761189082497630e+01
1.054853891010181322e+01
1.054945984214918653e+01
1.055037472479496863e+01
1.055128359570723262e+01
1.055218649239423634e+01
1.055308345220443300e+01
1.055397451232646233e+01
1.055485970978916299e+01
1.055573908146155837e+01
1.055661266405286902e+01
1.055748049411250378e+01
1.055834260803006153e+01
1.055919904203533655e+01
1.056004983219831139e+01
1.056089501442916401e+01
1.056173462447825884e+01
1.056256869793615749e+01
1.056339727023360631e+01
1.056422037664155056e+01
1.056503805227112203e+01
1.056585033207364610e+01
1.056665725084063823e+01
1.056745884320380746e+01
1.056825514363505114e+01
1.056904618644646199e+01
1.056983200579032456e+01
1.057061263565910814e+01
1.057138810988548094e+01
1.057215846214230126e+01
1.057292372594261565e+01
1.057368393463966605e+01
1.057443912142688269e+01
1.057518931933789119e+01
1.057593456124650366e+01
1.057667487986672761e+01
1.057741030775276236e+01
1.057814087729899555e+01
1.057886662074000839e+01
1.057958757015057394e+01
1.058030375744565710e+01
1.058101521438041281e+01
1.058172197255018787e+01
1.058242406339052266e+01
1.058312151817714408e+01
1.058381436802597797e+01
1.058450264389313489e+01
1.058518637657492256e+01
1.058586559670783345e+01
1.058654033476855894e+01
1.058721062107397692e+01
1.058787648578116070e+01
1.058853795888737004e+01
1.058919507023006013e+01
1.058984784948687619e+01
1.059049632617565706e+01
1.059114052965443165e+01
1.059178048912141712e+01
1.059241623361502960e+01
1.059304779201386992e+01
1.059367519303673433e+01
1.059429846524260732e+01
1.059491763703066880e+01
1.059553273664028872e+01
1.059614379215102709e+01
1.059675083148263575e+01
1.059735388239506193e+01
1.059795297248843760e+01
1.059854812920309364e+01
1.059913937981954746e+01
1.059972675145850829e+01
1.060031027108087898e+01
1.060088996548775420e+01
1.060146586132041691e+01
1.060203798506034722e+01
1.060260636302920823e+01
1.060317102138886369e+01
1.060373198509456749e+01
1.060428926615653644e+01
1.060484288397172570e+01
1.060539286156147121e+01
1.060593922184704319e+01
1.060648198764966033e+01
1.060702118169047914e+01
1.060755682659060106e+01
1.060808894487106890e+01
1.060861755895286684e+01
1.060914269115692043e+01
1.060966436370410015e+01
1.061018259871521785e+01
1.061069741821102319e+01
1.061120884411221432e+01
1.061171689823942721e+01
1.061222160231324274e+01
1.061272297795417963e+01
1.061322104668270327e+01
1.061371582991921692e+01
1.061420734898407225e+01
1.061469562509755526e+01
1.061518067937990040e+01
1.061566253285128170e+01
1.061614120643181280e+01
1.061661672094155406e+01
1.061708909710050541e+01
1.061755835552860816e+01
1.061802451674574854e+01
1.061848760117175239e+01
1.061894762912638690e+01
1.061940462082936598e+01
1.061985859640033958e+01
1.062030957585890434e+01
1.062075757912459650e+01
1.062120262601689546e+01
1.062164473625522376e+01
1.062208392945894175e+01
1.062252022514735827e+01
1.062295364273971998e+01
1.062338420155521490e+01
1.062381192081297598e+01
1.062423681963207756e+01
1.062465891703153531e+01
1.062507823193030809e+01
1.062549478314729257e+01
1.062590858940133565e+01
1.062631966931121852e+01
1.062672804139566907e+01
1.062713372407335477e+01
1.062753673566288803e+01
1.062793709438282086e+01
1.062833481835164662e+01
1.062872992558780361e+01
1.062912243400967149e+01
1.062951236143557132e+01
1.062989972558376373e+01
1.063028454407245782e+01
1.063066683441979876e+01
1.063104661404387485e+01
1.063142390026272111e+01
1.063179871029431034e+01
1.063217106125655675e+01
1.063254096996900167e+01
1.063290844882319952e+01
1.063327351164289603e+01
1.063363617369062375e+01
1.063399645015961070e+01
1.063435435617377678e+01
1.063470990678773553e+01
1.063506311698679063e+01
1.063541400168694473e+01
1.063576257573488526e+01
1.063610885390800220e+01
1.063645285091437032e+01
1.063679458139276335e+01
1.063713405991264516e+01
1.063747130097417148e+01
1.063780631900819529e+01
1.063813912837625786e+01
1.063846974337059770e+01
1.063879817821414520e+01
1.063912444706052085e+01
1.063944856399404060e+01
1.063977054302971759e+01
1.064009039811324797e+01
1.064040814312103045e+01
1.064072379186015382e+01
1.064103735806839701e+01
1.064134885541423436e+01
1.064165829749683390e+01
1.064196569784605906e+01
1.064227106992245808e+01
1.064257442711728174e+01
1.064287578275246560e+01
1.064317515008064774e+01
1.064347254228514927e+01
1.064376797247999207e+01
1.064406145370988632e+01
1.064435299895023590e+01
1.064464262110714365e+01
1.064493033301739544e+01
1.064521614744847788e+01
1.064550007709856771e+01
1.064578213459653711e+01
1.064606233250194656e+01
1.064634068330505379e+01
1.064661719942680840e+01
1.064689189321885365e+01
1.064716477696352470e+01
1.064743586287385035e+01
1.064770516309355131e+01
1.064797268969704369e+01
1.064823845468943553e+01
1.064850247000652850e+01
1.064876474751481439e+01
1.064902529901148220e+01
1.064928413622441106e+01
1.064954127081217550e+01
1.064979671436404018e+01
1.065005047839996699e+01
1.065030257437060790e+01
1.065055301365730500e+01
1.065080180757210115e+01
1.065104896735772755e+01
1.065129450418760548e+01
1.065153842916580729e+01
1.065178075308807593e+01
1.065202148601572851e+01
1.065226063785042321e+01
1.065249821845171319e+01
1.065273423763705196e+01
1.065296870518179340e+01
1.065320163081918636e+01
1.065343302424038363e+01
1.065366289509442943e+01
1.065389125298827189e+01
1.065411810748675769e+01
1.065434346811262856e+01
1.065456734434652830e+01
1.065478974562699754e+01
1.065501068135047547e+01
1.065523016087130159e+01
1.065544819350171046e+01
1.065566478851184051e+01
1.065587995512972164e+01
1.065609370254129118e+01
1.065630603989037795e+01
1.065651697627871108e+01
1.065672652076592186e+01
1.065693468236953301e+01
1.065714147006497292e+01
1.065734689278556679e+01
1.065755095942253483e+01
1.065775367882499935e+01
1.065795505979998126e+01
1.065815511111239822e+01
1.065835384148506826e+01
1.065855125959870620e+01
1.065874737409192718e+01
1.065894219356124495e+01
1.065913572656106822e+01
1.065932798160370965e+01
1.065951896715937863e+01
1.065970869165617962e+01
1.065989716348012095e+01
1.066008439097510596e+01
1.066027038244293834e+01
1.066045514614332035e+01
1.066063869029385280e+01
1.066082102307003332e+01
1.066100215260525985e+01
1.066118208699082892e+01
1.066136083427593384e+01
1.066153840246767004e+01
1.066171479953102796e+01
1.066189003338890018e+01
1.066206411192207426e+01
1.066223704296923636e+01
1.066240883432697650e+01
1.066257949374977798e+01
1.066274902895002263e+01
1.066291744759799442e+01
1.066308475732187411e+01
1.066325096570774100e+01
1.066341608029957300e+01
1.066358010859924477e+01
1.066374305806653489e+01
1.066390493611911339e+01
1.066406575013255598e+01
1.066422550744033160e+01
1.066438421533380954e+01
1.066454188106225942e+01
1.066469851183284590e+01
1.066485411481063750e+01
1.066500869711859423e+01
1.066516226583758176e+01
1.066531482800635899e+01
1.066546639062158697e+01
1.066561696066070830e+01
1.066576654520644674e+01
1.066591515040622440e+01
1.066606278213320103e+01
1.066620944624079925e+01
1.066635514856271350e+01
1.066649989491289929e+01
1.066664369108558041e+01
1.066678654285524885e+01
1.066692845597665951e+01
1.066706943618483550e+01
1.066720948919506640e+01
1.066734862070290646e+01
1.066748683638417994e+01
1.066762414189497399e+01
1.066776054287164222e+01
1.066789604493080645e+01
1.066803065366935321e+01
1.066816437466443723e+01
1.066829721347347792e+01
1.066842917563415938e+01
1.066856026666443569e+01
1.066869049206252562e+01
1.066881985730691618e+01
1.066894836785635547e+01
1.066907602914986164e+01
1.066920284660672102e+01
1.066932882562648288e+01
1.066945397158896469e+01
1.066957828985424683e+01
1.066970178576268147e+01
1.066982446463488543e+01
1.066994633177173668e+01
1.067006739245438673e+01
1.067018765194424823e+01
1.067030711548300381e+01
1.067042578829260080e+01
1.067054367557525119e+01
1.067066078251343697e+01
1.067077711426990483e+01
1.067089267598766433e+01
1.067100747278999862e+01
1.067112150978044838e+01
1.067123479204282965e+01
1.067134732464121782e+01
1.067145911261995650e+01
1.067157016100365929e+01
1.067168047479720094e+01
1.067179005898572441e+01
1.067189891853464090e+01
1.067200705838962449e+01
1.067211448347661928e+01
1.067222119870183406e+01
1.067232720895174047e+01
1.067243251909308377e+01
1.067253713397286852e+01
1.067264105841836930e+01
1.067274429723712714e+01
1.067284685521694776e+01
1.067294873712590508e+01
1.067304994771233773e+01
1.067315049170485075e+01
1.067325037381231567e+01
1.067334959872387223e+01
1.067344817110892308e+01
1.067354609561714085e+01
1.067364337687846110e+01
1.067374001950308759e+01
1.067383602808149057e+01
1.067393140718440492e+01
1.067402616136283555e+01
1.067412029514804850e+01
1.067421381305158157e+01
1.067430671956523369e+01
1.067439901916107381e+01
1.067449071629143553e+01
1.067458181538891893e+01
1.067467232086639228e+01
1.067476223711698680e+01
1.067485156851410366e+01
1.067494031941140697e+01
1.067502849274562315e+01
1.067511608828967518e+01
1.067520310922740201e+01
1.067528955899152265e+01
1.067537544100601998e+01
1.067546075868615141e+01
1.067554551543843822e+01
1.067562971466067268e+01
1.067571335974191804e+01
1.067579645406250144e+01
1.067587900099402276e+01
1.067596100389934932e+01
1.067604246613261587e+01
1.067612339103922636e+01
1.067620378195585751e+01
1.067628364221044990e+01
1.067636297512221510e+01
1.067644178400163391e+01
1.067652007215045096e+01
1.067659784286168900e+01
1.067667509941963111e+01
1.067675184509983488e+01
1.067682808316912002e+01
1.067690381688558254e+01
1.067697904949858412e+01
1.067705378424875207e+01
1.067712802436798825e+01
1.067720177307945839e+01
1.067727503359759922e+01
1.067734780912811665e+01
1.067742010286798582e+01
1.067749191800544750e+01
1.067756325772001524e+01
1.067763412518246646e+01
1.067770452355485489e+01
1.067777445599049457e+01
1.067784392563397411e+01
1.067791293562114774e+01
1.067798148907914069e+01
1.067804958912634739e+01
1.067811723887242792e+01
1.067818444141831158e+01
1.067825119985620219e+01
1.067831751726956391e+01
1.067838339673313541e+01
1.067844884131292282e+01
1.067851385406619968e+01
1.067857843804150875e+01
1.067864259627866552e+01
1.067870633180874762e+01
1.067876964765410541e+01
1.067883254682835670e+01
1.067889503233639026e+01
1.067895710717436231e+01
1.067901877432969648e+01
1.067908003678108741e+01
1.067914089749849538e+01
1.067920135944315518e+01
1.067926142556756197e+01
1.067932109881548897e+01
1.067938038212197149e+01
1.067943927841331586e+01
1.067949779060709758e+01
1.067955592161215961e+01
1.067961367432861586e+01
1.067967105154105134e+01
1.067972805352245835e+01
1.067978468156498906e+01
1.067984093791688949e+01
1.067989682482004277e+01
1.067995234450996733e+01
1.068000749921581516e+01
1.068006229116037886e+01
1.068011672256007927e+01
1.068017079562497784e+01
1.068022451255876959e+01
1.068027787555878660e+01
1.068033088681599452e+01
1.068038354851499427e+01
1.068043586283402213e+01
1.068048783194495321e+01
1.068053945801329441e+01
1.068059074319819146e+01
1.068064168965241834e+01
1.068069229952239496e+01
1.068074257494816770e+01
1.068079251806342356e+01
1.068084213099548307e+01
1.068089141586530211e+01
1.068094037478747360e+01
1.068098900987022226e+01
1.068103732321541344e+01
1.068108531691854424e+01
1.068113299306874886e+01
1.068118035374879504e+01
1.068122740103508761e+01
1.068127413699766670e+01
1.068132056370020777e+01
1.068136668320002158e+01
1.068141249754805600e+01
1.068145800878889062e+01
1.068150321896074217e+01
1.068154813009546444e+01
1.068159274421854654e+01
1.068163706334911112e+01
1.068168108949991790e+01
1.068172482467736017e+01
1.068176827088146652e+01
1.068181143010590617e+01
1.068185430433797656e+01
1.068189689555861577e+01
1.068193920574239542e+01
1.068198123685752243e+01
1.068202299086583906e+01
1.068206446972282464e+01
1.068210567537759204e+01
1.068214660977288943e+01
1.068218727484510211e+01
1.068222767252425065e+01
1.068226780473398918e+01
1.068230767339160892e+01
1.068234728040803638e+01
1.068238662768783165e+01
1.068242571712919542e+01
1.068246455062395839e+01
1.068250313005758834e+01
1.068254145730919014e+01
1.068257953425150042e+01
1.068261736275089646e+01
1.068265494466738552e+01
1.068269228185461550e+01
1.068272937577925852e+01
1.068276622724806302e+01
1.068280283763917637e+01
1.068283920835032674e+01
1.068287534077641610e+01
1.068291123630953088e+01
1.068294689633893135e+01
1.068298232225105870e+01
1.068301751542953681e+01
1.068305247725516516e+01
1.068308720910592058e+01
1.068312171235696262e+01
1.068315598838062819e+01
1.068319003854643512e+01
1.068322386422107684e+01
1.068325746676842947e+01
1.068329084754954650e+01
1.068332400792266057e+01
1.068335694924318524e+01
1.068338967286370789e+01
1.068342218013400036e+01
1.068345447240101365e+01
1.068348655100887434e+01
1.068351841729889173e+01
1.068355007260954892e+01
1.068358151827651525e+01
1.068361275563263391e+01
1.068364378600792719e+01
1.068367461072960189e+01
1.068370523112203685e+01
1.068373564850679358e+01
1.068376586420261454e+01
1.068379587952541776e+01
1.068382569578830221e+01
1.068385531430154423e+01
1.068388473637260105e+01
1.068391396330610910e+01
1.068394299640388390e+01
1.068397183696491837e+01
1.068400048628538634e+01
1.068402894565863903e+01
1.068405721637520855e+01
1.068408529972280618e+01
1.068411319698632056e+01
1.068414090944781947e+01
1.068416843838655161e+01
1.068419578507894485e+01
1.068422295079860262e+01
1.068424993681631285e+01
1.068427674440003727e+01
1.068430337481492209e+01
1.068432982932328734e+01
1.068435610918463397e+01
1.068438221565564561e+01
1.068440814999017974e+01
1.068443391343927473e+01
1.068445950725114990e+01
1.068448493267120192e+01
1.068451019094200660e+01
1.068453528330331892e+01
1.068456021099207476e+01
1.068458497524238560e+01
1.068460957728554561e+01
1.068463401835002458e+01
1.068465829966147673e+01
1.068468242244272659e+01
1.068470638791378846e+01
1.068473019729184692e+01
1.068475385179127102e+01
1.068477735262360540e+01
1.068480070099757739e+01
1.068482389811908995e+01
1.068484694519122691e+01
1.068486984341425305e+01
1.068489259392373825e+01
1.068491519744935658e+01
1.068493765468209666e+01
1.068495996633027367e+01
1.068498213310462575e+01
1.068500415571830864e+01
1.068502603488689573e+01
1.068504777132838335e+01
1.068506936576318189e+01
1.068509081891412471e+01
1.068511213150646100e+01
1.068513330426785934e+01
1.068515433792840774e+01
1.068517523322061535e+01
1.068519599087940719e+01
1.068521661164212944e+01
1.068523709624854412e+01
1.068525744544083445e+01
1.068527765996360479e+01
1.068529774056387360e+01
1.068531768799108050e+01
1.068533750299708451e+01
1.068535718633616405e+01
1.068537673876501515e+01
1.068539616104275325e+01
1.068541545393091141e+01
1.068543461819344564e+01
1.068545365459672603e+01
1.068547256390954381e+01
1.068549134690310964e+01
1.068551000435105358e+01
1.068552853702942329e+01
1.068554694571668406e+01
1.068556523119372237e+01
1.068558339424384407e+01
1.068560143565277087e+01
1.068561935620864745e+01
1.068563715670203429e+01
1.068565483792591131e+01
1.068567240067567958e+01
1.068568984574915781e+01
1.068570717394658054e+01
1.068572438607060526e+01
1.068574148292630710e+01
1.068575846532118234e+01
1.068577533406514135e+01
1.068579208997051566e+01
1.068580873385205798e+01
1.068582526652693687e+01
1.068584168881474383e+01
1.068585800153748266e+01
1.068587420551958189e+01
1.068589030158788589e+01
1.068590629057166019e+01
1.068592217330258975e+01
1.068593795061477358e+01
1.068595362334473542e+01
1.068596919233141307e+01
1.068598465841616907e+01
1.068600002244277825e+01
1.068601528525744015e+01
1.068603044770876842e+01
1.068604551064779962e+01
1.068606047492798794e+01
1.068607534140520343e+01
1.068609011093773908e+01
1.068610478438630729e+01
1.068611936261403450e+01
1.068613384648647191e+01
1.068614823687158655e+01
1.068616253463976129e+01
1.068617674066380552e+01
1.068619085581894268e+01
1.068620488098281385e+01
1.068621881703548127e+01
1.068623266485942835e+01
1.068624642533955260e+01
1.068626009936317445e+01
1.068627368782003195e+01
1.068628719160227902e+01
1.068630061157561784e+01
1.068631394625876574e+01
1.068632719464623726e+01
1.068634035708848629e+01
1.068635343394102577e+01
1.068636642556442951e+01
1.068637933232432502e+01
1.068639215459140068e+01
1.068640489274140570e+01
1.068641754715514480e+01
1.068643011821848177e+01
1.068644260632233589e+01
1.068645501186269264e+01
1.068646733524058767e+01
1.068647957686211747e+01
1.068649173713843936e+01
1.068650381648576797e+01
1.068651581532537520e+01
1.068652773408359202e+01
1.068653957319180670e+01
1.068655133308646654e+01
1.068656301420907972e+01
1.068657461700620992e+01
1.068658614192947987e+01
1.068659758943556781e+01
1.068660895998621818e+01
1.068662025404822558e+01
1.068663147209344899e+01
1.068664261459880116e+01
1.068665368204625565e+01
1.068666467492284333e+01
1.068667559372065590e+01
1.068668643893684056e+01
1.068669721107360360e+01
1.068670791063821035e+01
1.068671853814298522e+01
1.068672909410530991e+01
1.068673957904762517e+01
1.068674999349742727e+01
1.068676033798727509e+01
1.068677061305478482e+01
1.068678081924262990e+01
1.068679095709854110e+01
1.068680102717531000e+01
1.068681103003078547e+01
1.068682096622787370e+01
1.068683083633454345e+01
1.068684064092381725e+01
1.068685038057377845e+01
1.068686005586756593e+01
1.068686966739338118e+01
1.068687921574448119e+01
1.068688870151918202e+01
1.068689812532085703e+01
1.068690748775794219e+01
1.068691678944392720e+01
1.068692603099736083e+01
1.068693521304185090e+01
1.068694433620606610e+01
1.068695340112373060e+01
1.068696240843362766e+01
1.068697135877959781e+01
1.068698025281054242e+01
1.068698909118041840e+01
1.068699787454824524e+01
1.068700660357809440e+01
1.068701527877843382e+01
1.068702389851425494e+01
1.068703246236636950e+01
1.068704097057351099e+01
1.068704942337726216e+01
1.068705782102205859e+01
1.068706616375518337e+01
1.068707445182677063e+01
1.068708268548980556e+01
1.068709086500012262e+01
1.068709899061640911e+01
1.068710706260019805e+01
1.068711508121587883e+01
1.068712304673068481e+01
1.068713095941470748e+01
1.068713881954087874e+01
1.068714662738499221e+01
1.068715438322568012e+01
1.068716208734443640e+01
1.068716974002559539e+01
1.068717734155634957e+01
1.068718489222673718e+01
1.068719239232964746e+01
1.068719984216082075e+01
1.068720724201885020e+01
1.068721459220517289e+01
1.068722189302408410e+01
1.068722914478272301e+01
1.068723634779108345e+01
1.068724350236200671e+01
1.068725060881118694e+01
1.068725766745716577e+01
1.068726467862133767e+01
1.068727164262794638e+01
1.068727855980408670e+01
1.068728543047970270e+01
1.068729225498759128e+01
1.068729903366339506e+01
1.068730576684561129e+01
1.068731245487558645e+01
1.068731909809751457e+01
1.068732569685844780e+01
1.068733225150827870e+01
1.068733876239975622e+01
1.068734522988847857e+01
1.068735165433289502e+01
1.068735803609430413e+01
1.068736437553685192e+01
1.068737067302754262e+01
1.068737692893622260e+01
1.068738314363559283e+01
1.068738931750120535e+01
1.068739545091145970e+01
1.068740154424760824e+01
1.068740759789375083e+01
1.068741361223684017e+01
1.068741958766667999e+01
1.068742552457592154e+01
1.068743142336006891e+01
1.068743728441747542e+01
1.068744310814934551e+01
1.068744889495973105e+01
1.068745464525553857e+01
1.068746035944652384e+01
1.068746603794529015e+01
1.068747168116729540e+01
1.068747728935963259e+01
1.068748286189850916e+01
1.068748839877190626e+01
1.068749390009716294e+01
1.068749936599428807e+01
1.068750479658595687e+01
1.068751019199750729e+01
1.068751555235694717e+01
1.068752087779494353e+01
1.068752616844483860e+01
1.068753142444263382e+01
1.068753664592699693e+01
1.068754183303926730e+01
1.068754698592344177e+01
1.068755210472619055e+01
1.068755718959684486e+01
1.068756224068740401e+01
1.068756725815253539e+01
1.068757224214956736e+01
1.068757719283849639e+01
1.068758211038198702e+01
1.068758699494536835e+01
1.068759184669663398e+01
1.068759666580644563e+01
1.068760145244812776e+01
1.068760620679767470e+01
1.068761092903374532e+01
1.068761561933766302e+01
1.068762027789341928e+01
1.068762490488766836e+01
1.068762950050973437e+01
1.068763406495160595e+01
1.068763859840793629e+01
1.068764310107604487e+01
1.068764757315591751e+01
1.068765201485020988e+01
1.068765642636423507e+01
1.068766080790597961e+01
1.068766515968609276e+01
1.068766948191789190e+01
1.068767377481735537e+01
1.068767803860313492e+01
1.068768227349653976e+01
1.068768647972155250e+01
1.068769065750481850e+01
1.068769480707564767e+01
1.068769892866601978e+01
1.068770302251057558e+01
1.068770708884662568e+01
1.068771112791414346e+01
1.068771513995577394e+01
1.068771912521682133e+01
1.068772308394525972e+01
1.068772701639172773e+01
1.068773092280952852e+01
1.068773480345463689e+01
1.068773865858568684e+01
1.068774248846398223e+01
1.068774629335349147e+01
1.068775007352084927e+01
1.068775382923535489e+01
1.068775756076897743e+01
1.068776126839634699e+01
1.068776495239476532e+01
1.068776861304419334e+01
1.068777225062726188e+01
1.068777586542926983e+01
1.068777945773817528e+01
1.068778302784460976e+01
1.068778657604186755e+01
1.068779010262590745e+01
1.068779360789535460e+01
1.068779709215150042e+01
1.068780055569830623e+01
1.068780399875756082e+01
1.068780742110378412e+01
1.068781082265747351e+01
1.068781420338111054e+01
1.068781756324195342e+01
1.068782090221203518e+01
1.068782422026817081e+01
1.068782751739194836e+01
1.068783079356973431e+01
1.068783404879267351e+01
1.068783728305668745e+01
1.068784049636247246e+01
1.068784368871550683e+01
1.068784686012604013e+01
1.068785001060910567e+01
1.068785314018450805e+01
1.068785624887683383e+01
1.068785933671544441e+01
1.068786240373447782e+01
1.068786544997285048e+01
1.068786847547425545e+01
1.068787148028716416e+01
1.068787446446482470e+01
1.068787742806526175e+01
1.068788037115127665e+01
1.068788329379044910e+01
1.068788619605513723e+01
1.068788907802247401e+01
1.068789193977437080e+01
1.068789478139751559e+01
1.068789760298337477e+01
1.068790040462819135e+01
1.068790318643298320e+01
1.068790594850355014e+01
1.068790869095046681e+01
1.068791141388908272e+01
1.068791411743952757e+01
1.068791680172670944e+01
1.068791946688030947e+01
1.068792211303478901e+01
1.068792474032938600e+01
1.068792734890811502e+01
1.068792993891976906e+01
1.068793251051791771e+01
1.068793506386090719e+01
1.068793759911186214e+01
1.068794011643868380e+01
1.068794261601404827e+01
1.068794509801541537e+01
1.068794756262501267e+01
1.068795001002985501e+01
1.068795244042172854e+01
1.068795485399719603e+01
1.068795725095760041e+01
1.068795963150905948e+01
1.068796199586247120e+01
1.068796434423350838e+01
1.068796667684262225e+01
1.068796899391503885e+01
1.068797129568076443e+01
1.068797358237458184e+01
1.068797585423604879e+01
1.068797811150950317e+01
1.068798035444406125e+01
1.068798258329361062e+01
1.068798479831682080e+01
1.068798699977713795e+01
1.068798918794278308e+01
1.068799136308676090e+01
1.068799352548684389e+01
1.068799567542558826e+01
1.068799781319032682e+01
1.068799993907316725e+01
1.068800205337099563e+01
1.068800415638547641e+01
1.068800624842304892e+01
1.068800832979493265e+01
1.068801040081712195e+01
1.068801246181038955e+01
1.068801451309869144e+01
1.068801655343622770e+01
1.068801858148625250e+01
1.068802059716833952e+01
1.068802260040780183e+01
1.068802459113569547e+01
1.068802656928882122e+01
1.068802853480972459e+01
1.068803048764669228e+01
1.068803242775375217e+01
1.068803435509068045e+01
1.068803626962299447e+01
1.068803817132195277e+01
1.068804006016455688e+01
1.068804193613355658e+01
1.068804379921744108e+01
1.068804564941044077e+01
1.068804748671253435e+01
1.068804931112943990e+01
1.068805112267262025e+01
1.068805292135928120e+01
1.068805470721237327e+01
1.068805648026058819e+01
1.068805824053836062e+01
1.068805998808586999e+01
1.068806172294903689e+01
1.068806344517952844e+01
1.068806515483475295e+01
1.068806685197786166e+01
1.068806853667775059e+01
1.068807020900905513e+01
1.068807186905216078e+01
1.068807351689318885e+01
1.068807515262400720e+01
1.068807677634223019e+01
1.068807838815120981e+01
1.068807998816004279e+01
1.068808157648357238e+01
1.068808315324238123e+01
1.068808471856279674e+01
1.068808627257688926e+01
1.068808781542247210e+01
1.068808934724310511e+01
1.068809086818808396e+01
1.068809237841245618e+01
1.068809387807700517e+01
1.068809536734826438e+01
1.068809684639850488e+01
1.068809831540574073e+01
1.068809977455373605e+01
1.068810122403199259e+01
1.068810266403575326e+01
1.068810409476601109e+01
1.068810551642949669e+01
1.068810692923868721e+01
1.068810833341179922e+01
1.068810972917279756e+01
1.068811111675138470e+01
1.068811249638301319e+01
1.068811386830887322e+01
1.068811523277589970e+01
1.068811659003677050e+01
1.068811794034990825e+01
1.068811928397947675e+01
1.068812062119538631e+01
1.068812195227328488e+01
1.068812327749391677e+01
1.068812459584926344e+01
1.068812590621843661e+01
1.068812720855643050e+01
1.068812850282169258e+01
1.068812978897611465e+01
1.068813106698504889e+01
1.068813233681729002e+01
1.068813359844508959e+01
1.068813485184414525e+01
1.068813609699360967e+01
1.068813733387608522e+01
1.068813856247762217e+01
1.068813978278772758e+01
1.068814099479935642e+01
1.068814219850891156e+01
1.068814339391625268e+01
1.068814458102468734e+01
1.068814575984097104e+01
1.068814693037531782e+01
1.068814809264138432e+01
1.068814924665628574e+01
1.068815039244058163e+01
1.068815153001828655e+01
1.068815265941686654e+01
1.068815378066723376e+01
1.068815489380375716e+01
1.068815599886425360e+01
1.068815709588999141e+01
1.068815818492568859e+01
1.068815926601951460e+01
1.068816033922309394e+01
1.068816140459149544e+01
1.068816246218324473e+01
1.068816351206031356e+01
1.068816455428812873e+01
1.068816558893556312e+01
1.068816661607494822e+01
1.068816763578205808e+01
1.068816864813612177e+01
1.068816965321981982e+01
1.068817065111928422e+01
1.068817164192409486e+01
1.068817262572728310e+01
1.068817360262533533e+01
1.068817457271818583e+01
1.068817553610921678e+01
1.068817649290526894e+01
1.068817744321662566e+01
1.068817838715702884e+01
1.068817932484366473e+01
1.068818025639717462e+01
1.068818118194164946e+01
1.068818210160463344e+01
1.068818301551711691e+01
1.068818392381354343e+01
1.068818482663181157e+01
1.068818572411326429e+01
1.068818661640269951e+01
1.068818750364836490e+01
1.068818838600195775e+01
1.068818926361863042e+01
1.068819013665698314e+01
1.068819100527906585e+01
1.068819186965038348e+01
1.068819272993988712e+01
1.068819358631989580e+01
1.068819443842168759e+01
1.068819528574534239e+01
1.068819612823202370e+01
1.068819696582578160e+01
1.068819779847354745e+01
1.068819862612513738e+01
1.068819944873325056e+01
1.068820026625347275e+01
1.068820107864426916e+01
1.068820188586698983e+01
1.068820268788587136e+01
1.068820348466802983e+01
1.068820427618346613e+01
1.068820506240506774e+01
1.068820584330860157e+01
1.068820661887272117e+01
1.068820738907896306e+01
1.068820815391174683e+01
1.068820891335837509e+01
1.068820966740903522e+01
1.068821041605679945e+01
1.068821115929761945e+01
1.068821189713033526e+01
1.068821262955666818e+01
1.068821335658122429e+01
1.068821407821149094e+01
1.068821479445784028e+01
1.068821550533353282e+01
1.068821621085470319e+01
1.068821691104037797e+01
1.068821760591246317e+01
1.068821829549575142e+01
1.068821897981791480e+01
1.068821965890951198e+01
1.068822033280398642e+01
1.068822100153766286e+01
1.068822166514974903e+01
1.068822232368233927e+01
1.068822297718040915e+01
1.068822362569181905e+01
1.068822426926731062e+01
1.068822490796051561e+01
1.068822554182793994e+01
1.068822617092898319e+01
1.068822679532591913e+01
1.068822741508391161e+01
1.068822803027100754e+01
1.068822864095813330e+01
1.068822924721910361e+01
1.068822984913061269e+01
1.068823044677224487e+01
1.068823104022646042e+01
1.068823162957860617e+01
1.068823221491691733e+01
1.068823279633250500e+01
1.068823337391936690e+01
1.068823394777438907e+01
1.068823451799733348e+01
1.068823508469085048e+01
1.068823564796047343e+01
1.068823620791461870e+01
1.068823676466458572e+01
1.068823731832456048e+01
1.068823786901160666e+01
1.068823841684567988e+01
1.068823896194961165e+01
1.068823950444912185e+01
1.068824004447281339e+01
1.068824058215217043e+01
1.068824111762156193e+01
1.068824165101824342e+01
1.068824218248234814e+01
1.068824271215689947e+01
1.068824324018768124e+01
1.068824376648730023e+01
1.068824429080047089e+01
1.068824481299943585e+01
1.068824533296078449e+01
1.068824585056545473e+01
1.068824636569873654e+01
1.068824687825026487e+01
1.068824738811402497e+01
1.068824789518835239e+01
1.068824839937592941e+01
1.068824890058378685e+01
1.068824939872330404e+01
1.068824989371021239e+01
1.068825038546458828e+01
1.068825087391085837e+01
1.068825135897779610e+01
1.068825184059852873e+01
1.068825231871052672e+01
1.068825279325561084e+01
1.068825326417995392e+01
1.068825373143407020e+01
1.068825419497283313e+01
1.068825465475545400e+01
1.068825511074549972e+01
1.068825556291088397e+01
1.068825601122386892e+01
1.068825645566106530e+01
1.068825689620343589e+01
1.068825733283628487e+01
1.068825776554927387e+01
1.068825819433640589e+01
1.068825861919603781e+01
1.068825904013087325e+01
1.068825945714796255e+01
1.068825987025870639e+01
1.068826027947885748e+01
1.068826068482851355e+01
1.068826108633212080e+01
1.068826148401847398e+01
1.068826187792072169e+01
1.068826226807635393e+01
1.068826265452721280e+01
1.068826303731949245e+01
1.068826341650372846e+01
1.068826379213481204e+01
1.068826416427197934e+01
1.068826453297881685e+01
1.068826489832325777e+01
1.068826526037758562e+01
1.068826561921843421e+01
1.068826597492678054e+01
1.068826632758795903e+01
1.068826667729164370e+01
1.068826702413186425e+01
1.068826736820699352e+01
1.068826770961975825e+01
1.068826804847723189e+01
1.068826838489083464e+01
1.068826871897633701e+01
1.068826905085385981e+01
1.068826938064786880e+01
1.068826970848718361e+01
1.068827003450496882e+01
1.068827035883873755e+01
1.068827068163035321e+01
1.068827100302602773e+01
1.068827132317632156e+01
1.068827164223614545e+01
1.068827196036475335e+01
1.068827227772575661e+01
1.068827259448710620e+01
1.068827291082110875e+01
1.068827322690441584e+01
1.068827354291803111e+01
1.068827385904730320e+01
1.068827417548193104e+01
1.068827449241596206e+01
1.068827481004779401e+01
1.068827512858017315e+01
1.068827544817628450e+01
1.068827576749464825e+01
1.068827608572064314e+01
1.068827640272257895e+01
1.068827671837402171e+01
1.068827703255380079e+01
1.068827734514600181e+01
1.068827765603996660e+01
1.068827796513030037e+01
1.068827827231686278e+01
1.068827857750477506e+01
1.068827888060441467e+01
1.068827918153142065e+01
1.068827948020668650e+01
1.068827977655636907e+01
1.068828007051187967e+01
1.068828036200988940e+01
1.068828065099233093e+01
1.068828093740639140e+01
1.068828122120451773e+01
1.068828150234441665e+01
1.068828178078905289e+01
1.068828205650664920e+01
1.068828232947068990e+01
1.068828259965991201e+01
1.068828286705831587e+01
1.068828313165515809e+01
1.068828339344495859e+01
1.068828365242748824e+01
1.068828390860778121e+01
1.068828416199613152e+01
1.068828441260808759e+01
1.068828466046446124e+01
1.068828490559131694e+01
1.068828514801998431e+01
1.068828538778704740e+01
1.068828562493435008e+01
1.068828585950899246e+01
1.068828609156333798e+01
1.068828632115500632e+01
1.068828654834687342e+01
1.068828677320707854e+01
1.068828699580901542e+01
1.068828721623133760e+01
1.068828743455795660e+01
1.068828765087804733e+01
1.068828786528603736e+01
1.068828807788161406e+01
1.068828828876972459e+01
1.068828849806057590e+01
1.068828870586963120e+01
1.068828891231761347e+01
1.068828911753050370e+01
1.068828932163954271e+01
1.068828952478122751e+01
1.068828972709731673e+01
1.068828992873482520e+01
1.068829012984602755e+01
1.068829033058845646e+01
1.068829053112490435e+01
1.068829073162341992e+01
1.068829093225731341e+01
1.068829113320515312e+01
1.068829133465076175e+01
1.068829153678322541e+01
1.068829173979688818e+01
1.068829194389135040e+01
1.068829214921222359e+01
1.068829235449174497e+01
1.068829255907770737e+01
1.068829276288378693e+01
1.068829296582710775e+01
1.068829316782824179e+01
1.068829336881120895e+01
1.068829356870347524e+01
1.068829376743595105e+01
1.068829396494299999e+01
1.068829416116242292e+01
1.068829435603547928e+01
1.068829454950686397e+01
1.068829474152472869e+01
1.068829493204066594e+01
1.068829512100971613e+01
1.068829530839036934e+01
1.068829549414456004e+01
1.068829567823766880e+01
1.068829586063852588e+01
1.068829604131940769e+01
1.068829622025603499e+01
1.068829639742757998e+01
1.068829657281665924e+01
1.068829674640933547e+01
1.068829691819511929e+01
1.068829708816696744e+01
1.068829725632128635e+01
1.068829742265792504e+01
1.068829758718018574e+01
1.068829774989480974e+01
1.068829791081198977e+01
1.068829806994536824e+01
1.068829822731202839e+01
1.068829838293250312e+01
1.068829853683077502e+01
1.068829868903426750e+01
1.068829883957385718e+01
1.068829898848386506e+01
1.068829913580205648e+01
1.068829928156964826e+01
1.068829942583129977e+01
1.068829956863512187e+01
1.068829971003266976e+01
1.068829985007894479e+01
1.068829998883239618e+01
1.068830012635492110e+01
1.068830026271186284e+01
1.068830039797201259e+01
1.068830053220760412e+01
1.068830066549432622e+01
1.068830079791130494e+01
1.068830092954112132e+01
1.068830106046980077e+01
1.068830119078681307e+01
1.068830132058507765e+01
1.068830144996096010e+01
1.068830157901427391e+01
1.068830170784827693e+01
1.068830183656967847e+01
1.068830196528862864e+01
1.068830209411873078e+01
1.068830222317703083e+01
1.068830235258402261e+01
1.068830248246364789e+01
1.068830261294329631e+01
1.068830274415380011e+01
1.068830287619188901e+01
1.068830300846951786e+01
1.068830314067349008e+01
1.068830327271663094e+01
1.068830340451475536e+01
1.068830353598666960e+01
1.068830366705416424e+01
1.068830379764201943e+01
1.068830392767800674e+01
1.068830405709288023e+01
1.068830418582038710e+01
1.068830431379725887e+01
1.068830444096321663e+01
1.068830456726097289e+01
1.068830469263622440e+01
1.068830481703765578e+01
1.068830494041694301e+01
1.068830506272874814e+01
1.068830518393072282e+01
1.068830530398350298e+01
1.068830542285071949e+01
1.068830554049898574e+01
1.068830565689790646e+01
1.068830577202007248e+01
1.068830588584106422e+01
1.068830599833944994e+01
1.068830610949678572e+01
1.068830621929761726e+01
1.068830632772947453e+01
1.068830643478288245e+01
1.068830654045134665e+01
1.068830664473136771e+01
1.068830674762242872e+01
1.068830684912700590e+01
1.068830694925055980e+01
1.068830704800154052e+01
1.068830714539138604e+01
1.068830724143452571e+01
1.068830733614837136e+01
1.068830742955332802e+01
1.068830752167278675e+01
1.068830761253312644e+01
1.068830770216371562e+01
1.068830779059690883e+01
1.068830787786805203e+01
1.068830796401547545e+01
1.068830804908050069e+01
1.068830813310743721e+01
1.068830821614358051e+01
1.068830829823921746e+01
1.068830837944762102e+01
1.068830845982505018e+01
1.068830853943075887e+01
1.068830861832698176e+01
1.068830869657894667e+01
1.068830877425486747e+01
1.068830885142594767e+01
1.068830892816637501e+01
1.068830900455333222e+01
1.068830908066698626e+01
1.068830915659049019e+01
1.068830923240998843e+01
1.068830930821461322e+01
1.068830938409648468e+01
1.068830946015071071e+01
1.068830953647538884e+01
1.068830961317160266e+01
1.068830969034342537e+01
1.068830976809791800e+01
1.068830984654512939e+01
1.068830992579809624e+01
1.068831000597284664e+01
1.068831008718839470e+01
1.068831016956673885e+01
1.068831025323275519e+01
1.068831033805700059e+01
1.068831042374696239e+01
1.068831051016009148e+01
1.068831059715820153e+01
1.068831068460746536e+01
1.068831077237841853e+01
1.068831086034595756e+01
1.068831094838933815e+01
1.068831103639217517e+01
1.068831112424245156e+01
1.068831121183250232e+01
1.068831129905903055e+01
1.068831138582309492e+01
1.068831147203012044e+01
1.068831155758988594e+01
1.068831164241653831e+01
1.068831172642858185e+01
1.068831180954888183e+01
1.068831189170466445e+01
1.068831197282751688e+01
1.068831205285338903e+01
1.068831213172258821e+01
1.068831220937978799e+01
1.068831228577401404e+01
1.068831236085866365e+01
1.068831243459148794e+01
1.068831250693459900e+01
1.068831257785447342e+01
1.068831264732194697e+01
1.068831271531221638e+01
1.068831278180483935e+01
1.068831284678373272e+01
1.068831291023717611e+01
1.068831297215781184e+01
1.068831303254263965e+01
1.068831309139302377e+01
1.068831314871468230e+01
1.068831320451770495e+01
1.068831325881653171e+01
1.068831331162997245e+01
1.068831336298119083e+01
1.068831341289771686e+01
1.068831346141143612e+01
1.068831350855860229e+01
1.068831355437982111e+01
1.068831359892006638e+01
1.068831364222867109e+01
1.068831368435932738e+01
1.068831372537008839e+01
1.068831376532336996e+01
1.068831380428594713e+01
1.068831384232895942e+01
1.068831387952790024e+01
1.068831391596263281e+01
1.068831395171737242e+01
1.068831398688070244e+01
1.068831402154556365e+01
1.068831405580925775e+01
1.068831408977344744e+01
1.068831412354415811e+01
1.068831415723177258e+01
1.068831419095103996e+01
1.068831422482106497e+01
1.068831425896531684e+01
1.068831429351162399e+01
1.068831432859217401e+01
1.068831436434351900e+01
1.068831440090657203e+01
1.068831443842660178e+01
1.068831447705324322e+01
1.068831451694049228e+01
1.068831455824670229e+01
1.068831460113458931e+01
1.068831464577123036e+01
1.068831469232806342e+01
1.068831474098088918e+01
1.068831479190986400e+01
1.068831484529950870e+01
1.068831490133870865e+01
1.068831495968602496e+01
1.068831501881268942e+01
1.068831507848145712e+01
1.068831513855520399e+01
1.068831519890198045e+01
1.068831525939501503e+01
1.068831531991271078e+01
1.068831538033864348e+01
1.068831544056156702e+01
1.068831550047540624e+01
1.068831555997926408e+01
1.068831561897741800e+01
1.068831567737931998e+01
1.068831573509959831e+01
1.068831579205805049e+01
1.068831584817965741e+01
1.068831590339457094e+01
1.068831595763811571e+01
1.068831601085079441e+01
1.068831606297828252e+01
1.068831611397143355e+01
1.068831616378627380e+01
1.068831621238400409e+01
1.068831625973100152e+01
1.068831630579881775e+01
1.068831635056417717e+01
1.068831639400898403e+01
1.068831643612031357e+01
1.068831647689041731e+01
1.068831651631672131e+01
1.068831655440182615e+01
1.068831659115351052e+01
1.068831662658472226e+01
1.068831666071358910e+01
1.068831669356341152e+01
1.068831672516266629e+01
1.068831675554500471e+01
1.068831678474925262e+01
1.068831681281941037e+01
1.068831683980465286e+01
1.068831686575933482e+01
1.068831689074297664e+01
1.068831691482028390e+01
1.068831693806112959e+01
1.068831696054056479e+01
1.068831698233881511e+01
1.068831700354128067e+01
1.068831702423853969e+01
1.068831704452633957e+01
1.068831706450560937e+01
1.068831708428244553e+01
1.068831710396812440e+01
1.068831712367909859e+01
1.068831714353699169e+01
1.068831716366860363e+01
1.068831718420591059e+01
1.068831720528606155e+01
1.068831722705138354e+01
1.068831724964937635e+01
1.068831727323271252e+01
1.068831729795924623e+01
1.068831732399199907e+01
1.068831735149917250e+01
1.068831738065414072e+01
1.068831741163545423e+01
1.068831744462683808e+01
1.068831747981719005e+01
1.068831751722241208e+01
1.068831755544567841e+01
1.068831759407002302e+01
1.068831763300206106e+01
1.068831767215189110e+01
1.068831771143309695e+01
1.068831775076274759e+01
1.068831779006140259e+01
1.068831782925310314e+01
1.068831786826537744e+01
1.068831790702924067e+01
1.068831794547918967e+01
1.068831798355321538e+01
1.068831802119278684e+01
1.068831805834286186e+01
1.068831809495188701e+01
1.068831813097179051e+01
1.068831816635798759e+01
1.068831820106938224e+01
1.068831823506836187e+01
1.068831826832079734e+01
1.068831830079605183e+01
1.068831833246697016e+01
1.068831836330988416e+01
1.068831839330460909e+01
1.068831842243445074e+01
1.068831845068619835e+01
1.068831847805012814e+01
1.068831850451999799e+01
1.068831853009305810e+01
1.068831855477004211e+01
1.068831857855516709e+01
1.068831860145614066e+01
1.068831862348415207e+01
1.068831864465387760e+01
1.068831866498348226e+01
1.068831868449461453e+01
1.068831870321240984e+01
1.068831872116548709e+01
1.068831873838595392e+01
1.068831875490940497e+01
1.068831877077491477e+01
1.068831878602505192e+01
1.068831880070586493e+01
1.068831881486689284e+01
1.068831882856115456e+01
1.068831884184515957e+01
1.068831885477890253e+01
1.068831886742586512e+01
1.068831887985301243e+01
1.068831889213079656e+01
1.068831890433315479e+01
1.068831891653751320e+01
1.068831892882478130e+01
1.068831894127935378e+01
1.068831895398911414e+01
1.068831896704542750e+01
1.068831898054315310e+01
1.068831899458062473e+01
1.068831900925967204e+01
1.068831902468560457e+01
1.068831904096722241e+01
1.068831905821680728e+01
1.068831907655012792e+01
1.068831909608644182e+01
1.068831911694848991e+01
1.068831913926249833e+01
1.068831916314835873e+01
1.068831918809985915e+01
1.068831921370345661e+01
1.068831923986598653e+01
1.068831926649732900e+01
1.068831929351041765e+01
1.068831932082123437e+01
1.068831934834880926e+01
1.068831937601522064e+01
1.068831940374560041e+01
1.068831943146812691e+01
1.068831945911402670e+01
1.068831948661757814e+01
1.068831951391610957e+01
1.068831954094999581e+01
1.068831956766266345e+01
1.068831959400058729e+01
1.068831961991329038e+01
1.068831964535334933e+01
1.068831967027638363e+01
1.068831969464106990e+01
1.068831971840912587e+01
1.068831974154532638e+01
1.068831976401748918e+01
1.068831978579648556e+01
1.068831980685623506e+01
1.068831982717370721e+01
1.068831984672891977e+01
1.068831986550493873e+01
1.068831988348788187e+01
1.068831990066691517e+01
1.068831991703425466e+01
1.068831993258516455e+01
1.068831994731796087e+01
1.068831996123400607e+01
1.068831997433771264e+01
1.068831998663654304e+01
1.068831999814101152e+01
1.068832000886467704e+01
1.068832001882415028e+01
1.068832002803909198e+01
1.068832003653221108e+01
1.068832004432926652e+01
1.068832005145906550e+01
1.068832005795346518e+01
1.068832006384737454e+01
1.068832006917874722e+01
1.068832007398859041e+01
1.068832007832095776e+01
1.068832008222295471e+01
1.068832008574473491e+01
1.068832008893950025e+01
1.068832009186350440e+01
1.068832009457604748e+01
1.068832009713948139e+01
1.068832009961920804e+01
1.068832010208367400e+01
1.068832010460438120e+01
1.068832010725587800e+01
1.068832011011576277e+01
1.068832011326468034e+01
1.068832011678632909e+01
1.068832012076745563e+01
1.068832012529785480e+01
1.068832013047037144e+01
1.068832013638090039e+01
1.068832014312838297e+01
1.068832015081481579e+01
1.068832015954523662e+01
1.068832016942774210e+01
1.068832018057346822e+01
1.068832019309660986e+01
1.068832020711440300e+01
1.068832022274714078e+01
1.068832024011815740e+01
1.068832025910760208e+01
1.068832027938256424e+01
1.068832030079838624e+01
1.068832032321506631e+01
1.068832034649696006e+01
1.068832037051278760e+01
1.068832039513562471e+01
1.068832042024291340e+01
1.068832044571645312e+01
1.068832047144240605e+01
1.068832049731129352e+01
1.068832052321800141e+01
1.068832054906177298e+01
1.068832057474621422e+01
1.068832060017929031e+01
1.068832062527333093e+01
1.068832064994502318e+01
1.068832067411541509e+01
1.068832069770991922e+01
1.068832072065830374e+01
1.068832074289470491e+01
1.068832076435761280e+01
1.068832078498988203e+01
1.068832080473872992e+01
1.068832082355572943e+01
1.068832084139681804e+01
1.068832085822229594e+01
1.068832087399681896e+01
1.068832088868940922e+01
1.068832090227344622e+01
1.068832091472667223e+01
1.068832092603119044e+01
1.068832093617346324e+01
1.068832094514431574e+01
1.068832095293893403e+01
1.068832095955686512e+01
1.068832096500201523e+01
1.068832096928265329e+01
1.068832097241140744e+01
1.068832097440527029e+01
1.068832097528559189e+01
1.068832097507808498e+01
1.068832097381282153e+01
1.068832097152423799e+01
1.068832096825112821e+01
1.068832096403664700e+01
1.068832095892831369e+01
1.068832095297800322e+01
1.068832094624195861e+01
1.068832093878077671e+01
1.068832093065941891e+01
1.068832092194720929e+01
1.068832091271782758e+01
1.068832090304931803e+01
1.068832089302408761e+01
1.068832088272889891e+01
1.068832087225488081e+01
1.068832086169751960e+01
1.068832085115666430e+01
1.068832084073652311e+01
1.068832083054567050e+01
1.068832082069703304e+01
1.068832081130790534e+01
1.068832080249993943e+01
1.068832079439915184e+01
1.068832078713591471e+01
1.068832078084496828e+01
1.068832077566540484e+01
1.068832077174068651e+01
1.068832076921862928e+01
1.068832076825141542e+01
1.068832076899558636e+01
1.068832077161204097e+01
1.068832077626604260e+01
1.068832078312721734e+01
1.068832079236955046e+01
1.068832080417138286e+01
1.068832081871542705e+01
1.068832083618869966e+01
1.068832085567526846e+01
1.068832087606323888e+01
1.068832089721101752e+01
1.068832091898214287e+01
1.068832094124529242e+01
1.068832096387426489e+01
1.068832098674800157e+01
1.068832100975057031e+01
1.068832103277117263e+01
1.068832105570414370e+01
1.068832107844894885e+01
1.068832110091018883e+01
1.068832112299759451e+01
1.068832114462602867e+01
1.068832116571548951e+01
1.068832118619110361e+01
1.068832120598313296e+01
1.068832122502697146e+01
1.068832124326314315e+01
1.068832126063730925e+01
1.068832127710025759e+01
1.068832129260791142e+01
1.068832130712132766e+01
1.068832132060669338e+01
1.068832133303532927e+01
1.068832134438368620e+01
1.068832135463335042e+01
1.068832136377103836e+01
1.068832137178860009e+01
1.068832137868301935e+01
1.068832138445640823e+01
1.068832138911601604e+01
1.068832139267421866e+01
1.068832139514853097e+01
1.068832139656159619e+01
1.068832139694119121e+01
1.068832139632022482e+01
1.068832139473673593e+01
1.068832139223390065e+01
1.068832138886002525e+01
1.068832138466854609e+01
1.068832137971803498e+01
1.068832137407219740e+01
1.068832136779986541e+01
1.068832136097501007e+01
1.068832135367672898e+01
1.068832134598925698e+01
1.068832133800195727e+01
1.068832132980933025e+01
1.068832132151100467e+01
1.068832131321174117e+01
1.068832130502143762e+01
1.068832129705511846e+01
1.068832128943294535e+01
1.068832128228020828e+01
1.068832127572733270e+01
1.068832126990987597e+01
1.068832126496852553e+01
1.068832126104910429e+01
1.068832125830256530e+01
1.068832125688499524e+01
1.068832125695761270e+01
1.068832125868676997e+01
1.068832126224394941e+01
1.068832126780576530e+01
1.068832127555396916e+01
1.068832128567543904e+01
1.068832129813272758e+01
1.068832131152080223e+01
1.068832132548481439e+01
1.068832133992898115e+01
1.068832135476104916e+01
1.068832136989229475e+01
1.068832138523753095e+01
1.068832140071509862e+01
1.068832141624687360e+01
1.068832143175826488e+01
1.068832144717820931e+01
1.068832146243918046e+01
1.068832147747717976e+01
1.068832149223174532e+01
1.068832150664594494e+01
1.068832152066637953e+01
1.068832153424317966e+01
1.068832154733001261e+01
1.068832155988407173e+01
1.068832157186609066e+01
1.068832158324032733e+01
1.068832159397457460e+01
1.068832160404016207e+01
1.068832161341194364e+01
1.068832162206830994e+01
1.068832162999118474e+01
1.068832163716602324e+01
1.068832164358180847e+01
1.068832164923106198e+01
1.068832165410983315e+01
1.068832165821770630e+01
1.068832166155779539e+01
1.068832166413674756e+01
1.068832166596474487e+01
1.068832166705549724e+01
1.068832166742624956e+01
1.068832166709777809e+01
1.068832166609439049e+01
1.068832166444392584e+01
1.068832166217775992e+01
1.068832165933079636e+01
1.068832165594147199e+01
1.068832165205175677e+01
1.068832164770715032e+01
1.068832164295668896e+01
1.068832163785293510e+01
1.068832163245199141e+01
1.068832162681348308e+01
1.068832162100057737e+01
1.068832161507996403e+01
1.068832160912187312e+01
1.068832160320006253e+01
1.068832159739182508e+01
1.068832159177797969e+01
1.068832158644288555e+01
1.068832158147442968e+01
1.068832157696403229e+01
1.068832157300664321e+01
1.068832156970074720e+01
1.068832156714836401e+01
1.068832156545503764e+01
1.068832156472985240e+01
1.068832156508541864e+01
1.068832156663788169e+01
1.068832156950692180e+01
1.068832157381574532e+01
1.068832157969109353e+01
1.068832158726324444e+01
1.068832159619796585e+01
1.068832160592154601e+01
1.068832161633680933e+01
1.068832162735072799e+01
1.068832163887338460e+01
1.068832165081797569e+01
1.068832166310081000e+01
1.068832167564131197e+01
1.068832168836201468e+01
1.068832170118856872e+01
1.068832171404973508e+01
1.068832172687739224e+01
1.068832173960652554e+01
1.068832175217523783e+01
1.068832176452474414e+01
1.068832177659937344e+01
1.068832178834656510e+01
1.068832179971687601e+01
1.068832181066397169e+01
1.068832182114463514e+01
1.068832183111875800e+01
1.068832184054934942e+01
1.068832184940252894e+01
1.068832185764753007e+01
1.068832186525670025e+01
1.068832187220549912e+01
1.068832187847249848e+01
1.068832188403938765e+01
1.068832188889096457e+01
1.068832189301514113e+01
1.068832189640294317e+01
1.068832189904851226e+01
1.068832190094909684e+01
1.068832190210506639e+01
1.068832190251989722e+01
1.068832190220018141e+01
1.068832190115562319e+01
1.068832189939904254e+01
1.068832189694636980e+01
1.068832189381664932e+01
1.068832189003203759e+01
1.068832188561780860e+01
1.068832188060234500e+01
1.068832187501714337e+01
1.068832186889681601e+01
1.068832186227908387e+01
1.068832185520478717e+01
1.068832184771787119e+01
1.068832183986540407e+01
1.068832183169755901e+01
1.068832182326762670e+01
1.068832181463201003e+01
1.068832180585022407e+01
1.068832179698489959e+01
1.068832178810177780e+01
1.068832177926971383e+01
1.068832177056067678e+01
1.068832176204974793e+01
1.068832175381512251e+01
1.068832174593811146e+01
1.068832173850313083e+01
1.068832173159771948e+01
1.068832172531252489e+01
1.068832171974130496e+01
1.068832171498093686e+01
1.068832171113140816e+01
1.068832170829581685e+01
1.068832170658037839e+01
1.068832170609441867e+01
1.068832170695037753e+01
1.068832170926381053e+01
1.068832171315338186e+01
1.068832171874087145e+01
1.068832172615117138e+01
1.068832173529513518e+01
1.068832174579185690e+01
1.068832175749268742e+01
1.068832177025720576e+01
1.068832178394936960e+01
1.068832179843750829e+01
1.068832181359432276e+01
1.068832182929689267e+01
1.068832184542667108e+01
1.068832186186947908e+01
1.068832187851551829e+01
1.068832189525936194e+01
1.068832191199995840e+01
1.068832192864062769e+01
1.068832194508906674e+01
1.068832196125734235e+01
1.068832197706190001e+01
1.068832199242355507e+01
1.068832200726749981e+01
1.068832202152330169e+01
1.068832203512489620e+01
1.068832204801059937e+01
1.068832206012309527e+01
1.068832207140944845e+01
1.068832208182109333e+01
1.068832209131383770e+01
1.068832209984786630e+01
1.068832210738773547e+01
1.068832211390237674e+01
1.068832211936509502e+01
1.068832212375357038e+01
1.068832212704985452e+01
1.068832212924037428e+01
1.068832213031593170e+01
1.068832213027170219e+01
1.068832212910723278e+01
1.068832212682644922e+01
1.068832212343764709e+01
1.068832211895349715e+01
1.068832211339104532e+01
1.068832210677171091e+01
1.068832209912128484e+01
1.068832209046993675e+01
1.068832208085220614e+01
1.068832207030700765e+01
1.068832205887762932e+01
1.068832204661173613e+01
1.068832203356136468e+01
1.068832201978292495e+01
1.068832200533720211e+01
1.068832199028935648e+01
1.068832197470891821e+01
1.068832195866979440e+01
1.068832194225026910e+01
1.068832192553299443e+01
1.068832190860499942e+01
1.068832189155768653e+01
1.068832187448683335e+01
1.068832185749259089e+01
1.068832184067948354e+01
1.068832182415640908e+01
1.068832180803664045e+01
1.068832179243782754e+01
1.068832177748198653e+01
1.068832176329551409e+01
1.068832175000917850e+01
1.068832173775812322e+01
1.068832172668186331e+01
1.068832171692429256e+01
1.068832170863367104e+01
1.068832170196264109e+01
1.068832169706821489e+01
1.068832169411177624e+01
1.068832169325908765e+01
1.068832169468028503e+01
1.068832169854987413e+01
1.068832170504673940e+01
1.068832171435413514e+01
1.068832172661250901e+01
1.068832174107529909e+01
1.068832175726210743e+01
1.068832177496527969e+01
1.068832179398385840e+01
1.068832181412358295e+01
1.068832183519688428e+01
1.068832185702289372e+01
1.068832187942743417e+01
1.068832190224302359e+01
1.068832192530888037e+01
1.068832194847091444e+01
1.068832197158172903e+01
1.068832199450062781e+01
1.068832201709360774e+01
1.068832203923335911e+01
1.068832206079927261e+01
1.068832208167743048e+01
1.068832210176061182e+01
1.068832212094828904e+01
1.068832213914663498e+01
1.068832215626851223e+01
1.068832217223348025e+01
1.068832218696779890e+01
1.068832220040441783e+01
1.068832221248298353e+01
1.068832222314983937e+01
1.068832223235802203e+01
1.068832224006726683e+01
1.068832224624400062e+01
1.068832225086134713e+01
1.068832225389912871e+01
1.068832225534385927e+01
1.068832225518874957e+01
1.068832225343370546e+01
1.068832225008532788e+01
1.068832224515691465e+01
1.068832223866845865e+01
1.068832223064664788e+01
1.068832222112486541e+01
1.068832221014318762e+01
1.068832219774839309e+01
1.068832218399395018e+01
1.068832216894002229e+01
1.068832215265347152e+01
1.068832213520785324e+01
1.068832211668342147e+01
1.068832209716712001e+01
1.068832207675259482e+01
1.068832205554017989e+01
1.068832203363691136e+01
1.068832201115651870e+01
1.068832198821942470e+01
1.068832196495274900e+01
1.068832194149030812e+01
1.068832191797261189e+01
1.068832189454686699e+01
1.068832187136697520e+01
1.068832184859353340e+01
1.068832182639383355e+01
1.068832180494186446e+01
1.068832178441831005e+01
1.068832176501054754e+01
1.068832174691265458e+01
1.068832173032539679e+01
1.068832171545624377e+01
1.068832170251935310e+01
1.068832169173558100e+01
1.068832168333248234e+01
1.068832167754429996e+01
1.068832167461198068e+01
1.068832167478316109e+01
1.068832167831217284e+01
1.068832168546004802e+01
1.068832169649450847e+01
1.068832171156465449e+01
1.068832172871334940e+01
1.068832174703993054e+01
1.068832176636291820e+01
1.068832178650744069e+01
1.068832180730523795e+01
1.068832182859465441e+01
1.068832185022064785e+01
1.068832187203478234e+01
1.068832189389523180e+01
1.068832191566678169e+01
1.068832193722082380e+01
1.068832195843535793e+01
1.068832197919499549e+01
1.068832199939095595e+01
1.068832201892106859e+01
1.068832203768976896e+01
1.068832205560810600e+01
1.068832207259373313e+01
1.068832208857091715e+01
1.068832210347053113e+01
1.068832211723005798e+01
1.068832212979359042e+01
1.068832214111182743e+01
1.068832215114207962e+01
1.068832215984826739e+01
1.068832216720091743e+01
1.068832217317716804e+01
1.068832217776076554e+01
1.068832218094206432e+01
1.068832218271802859e+01
1.068832218309223236e+01
1.068832218207485774e+01
1.068832217968269660e+01
1.068832217593914891e+01
1.068832217087422443e+01
1.068832216452454276e+01
1.068832215693332977e+01
1.068832214815042470e+01
1.068832213823227129e+01
1.068832212724192487e+01
1.068832211524905063e+01
1.068832210232991997e+01
1.068832208856741417e+01
1.068832207405102608e+01
1.068832205887685660e+01
1.068832204314761292e+01
1.068832202697261380e+01
1.068832201046778607e+01
1.068832199375566816e+01
1.068832197696540298e+01
1.068832196023274683e+01
1.068832194370006228e+01
1.068832192751631993e+01
1.068832191183710556e+01
1.068832189682460765e+01
1.068832188264762628e+01
1.068832186948156782e+01
1.068832185750845376e+01
1.068832184691691012e+01
1.068832183790217094e+01
1.068832183066608188e+01
1.068832182541709841e+01
1.068832182237028228e+01
1.068832182174730505e+01
1.068832182377644990e+01
1.068832182869260627e+01
1.068832183673727165e+01
1.068832184774382021e+01
1.068832185974861382e+01
1.068832187236699838e+01
1.068832188548907780e+01
1.068832189900917307e+01
1.068832191282583466e+01
1.068832192684183191e+01
1.068832194096415833e+01
1.068832195510403515e+01
1.068832196917690425e+01
1.068832198310243164e+01
1.068832199680450401e+01
1.068832201021123929e+01
1.068832202325496894e+01
1.068832203587225749e+01
1.068832204800388830e+01
1.068832205959486892e+01
1.068832207059442929e+01
1.068832208095602532e+01
1.068832209063733707e+01
1.068832209960026525e+01
1.068832210781093650e+01
1.068832211523970166e+01
1.068832212186113040e+01
1.068832212765402367e+01
1.068832213260140129e+01
1.068832213669050546e+01
1.068832213991280611e+01
1.068832214226399380e+01
1.068832214374398504e+01
1.068832214435691697e+01
1.068832214411115267e+01
1.068832214301927941e+01
1.068832214109810508e+01
1.068832213836866352e+01
1.068832213485621274e+01
1.068832213059023317e+01
1.068832212560442940e+01
1.068832211993672843e+01
1.068832211362928319e+01
1.068832210672846905e+01
1.068832209928488375e+01
1.068832209135335098e+01
1.068832208299291686e+01
1.068832207426685166e+01
1.068832206524264805e+01
1.068832205599202467e+01
1.068832204659092078e+01
1.068832203711950157e+01
1.068832202766215467e+01
1.068832201830749362e+01
1.068832200914835084e+01
1.068832200028178825e+01
1.068832199180908837e+01
1.068832198383575793e+01
1.068832197647152427e+01
1.068832196983034422e+01
1.068832196403039347e+01
1.068832195919407191e+01
1.068832195544800712e+01
1.068832195292304732e+01
1.068832195175426136e+01
1.068832195208094760e+01
1.068832195404662322e+01
1.068832195779903316e+01
1.068832196348062524e+01
1.068832197012896401e+01
1.068832197698895392e+01
1.068832198401191391e+01
1.068832199115118087e+01
1.068832199836211139e+01
1.068832200560207824e+01
1.068832201283047567e+01
1.068832202000871234e+01
1.068832202710021306e+01
1.068832203407042769e+01
1.068832204088681870e+01
1.068832204751886650e+01
1.068832205393807300e+01
1.068832206011795449e+01
1.068832206603404522e+01
1.068832207166390269e+01
1.068832207698709524e+01
1.068832208198521627e+01
1.068832208664187000e+01
1.068832209094268393e+01
1.068832209487529994e+01
1.068832209842938319e+01
1.068832210159661145e+01
1.068832210437068397e+01
1.068832210674731442e+01
1.068832210872423616e+01
1.068832211030120405e+01
1.068832211147998557e+01
1.068832211226436968e+01
1.068832211266016152e+01
1.068832211267518595e+01
1.068832211231928397e+01
1.068832211160431456e+01
1.068832211054415637e+01
1.068832210915470604e+01
1.068832210745387634e+01
1.068832210546159978e+01
1.068832210319982678e+01
1.068832210069252220e+01
1.068832209796567589e+01
1.068832209504729036e+01
1.068832209196738603e+01
1.068832208875800305e+01
1.068832208545320128e+01
1.068832208208905499e+01
1.068832207870365814e+01
1.068832207533712442e+01
1.068832207203158013e+01
1.068832206883117664e+01
1.068832206578207789e+01
1.068832206293246934e+01
1.068832206033255083e+01
1.068832205803454372e+01
1.068832205609268726e+01
1.068832205456323337e+01
1.068832205350446074e+01
1.068832205297665716e+01
1.068832205304213545e+01
1.068832205376522104e+01
1.068832205521226264e+01
