1.000000000000000000e+01
1.000000000000000000e+01
9.928929299759172267e+00
9.858563809455379356e+00
9.788887456369497642e+00
9.719884628126942872e+00
9.651542027826527814e+00
9.583846709859999535e+00
9.516786030754133208e+00
9.450347649170719677e+00
9.384519525906577897e+00
9.319289923893538941e+00
9.254647408198460212e+00
9.190580846023220118e+00
9.127079406704716291e+00
9.064132561714869141e+00
9.001730084660616527e+00
8.939862051283922639e+00
8.878518839461769119e+00
8.817690911585252422e+00
8.757368951260618317e+00
8.697545652943054151e+00
8.638213986399774669e+00
8.579367017747392410e+00
8.520997909451914154e+00
8.463099920328740922e+00
8.405666405542664421e+00
8.348690816607875931e+00
8.292166701387953864e+00
8.236087704095876205e+00
8.180447565294013401e+00
8.125240121894130141e+00
8.070459307157381801e+00
8.016099150694323328e+00
7.962153778464898579e+00
7.908617412778448319e+00
7.855484372293707551e+00
7.802749072018804632e+00
7.750406023311260384e+00
7.698449838470861728e+00
7.646875893236932953e+00
7.595680497980966450e+00
7.544859962177075552e+00
7.494410618554496750e+00
7.444328823097588810e+00
7.394610955045828327e+00
7.345253416893817722e+00
7.296252634391278136e+00
7.247605056543052982e+00
7.199307155609107944e+00
7.151355427104529205e+00
7.103746389799524330e+00
7.056476585719423156e+00
7.009542580144676904e+00
6.962940961610856405e+00
6.916668341908657425e+00
6.870721356083895337e+00
6.825096662437506012e+00
6.779790942525547592e+00
6.734800901159200492e+00
6.690123266404767399e+00
6.645754789583668831e+00
6.601692245272451132e+00
6.557932431302778475e+00
6.514472359794500456e+00
6.471310186309310097e+00
6.428443806581991105e+00
6.385871029050817604e+00
6.343589667233876739e+00
6.301597539729062447e+00
6.259892470214080795e+00
6.218472287446443758e+00
6.177334825263473661e+00
6.136477922582304068e+00
6.095899423399874451e+00
6.055597176792937297e+00
6.015569036918050116e+00
5.975812863011583431e+00
5.936326519389714562e+00
5.897107875448432068e+00
5.858154805663531306e+00
5.819465189590619758e+00
5.781036911865111705e+00
5.742867862202231777e+00
5.704955935397014066e+00
5.667299031324301239e+00
5.629895054938745425e+00
5.592741916274809100e+00
5.555837530446761541e+00
5.519179817648684150e+00
5.482766703154465127e+00
5.446596117317803909e+00
5.410665995572208509e+00
5.374974312323146819e+00
5.339519804310668860e+00
5.304301144882268559e+00
5.269316807143624715e+00
5.234565267210356865e+00
5.200045004208027066e+00
5.165754500272139005e+00
5.131692240548136219e+00
5.097856713191405653e+00
5.064246409367273216e+00
5.030859823251010887e+00
4.997695452027828722e+00
4.964751795892877517e+00
4.932027358051252364e+00
4.899520644717988205e+00
4.867230165118062502e+00
4.835154431486393456e+00
4.803291959067840899e+00
4.771641266117206293e+00
4.740200873899231837e+00
4.708969306688604917e+00
4.677945091769948327e+00
4.647126759437831822e+00
4.616512842996764121e+00
4.586101878761195572e+00
4.555892406055519039e+00
4.525882967214068131e+00
4.496072107581117194e+00
4.466458375510884871e+00
4.437040322367526990e+00
4.407816502525146340e+00
4.378785473367782899e+00
4.349945795289419159e+00
4.321296031693981021e+00
4.292834748995333349e+00
4.264560516617285302e+00
4.236471909195016039e+00
4.208567978369381457e+00
4.180847842741642673e+00
4.153310343390709924e+00
4.125954325497652064e+00
4.098778638345689451e+00
4.071782135320200169e+00
4.044963673908715585e+00
4.018322115700921238e+00
3.991856326388659060e+00
3.965565175765925598e+00
3.939447537728872017e+00
3.913502290275804096e+00
3.887728315507182231e+00
3.862124499625623653e+00
3.836689732935897990e+00
3.811422909844931262e+00
3.786322928861804105e+00
3.761388692597750882e+00
3.736619107766163239e+00
3.712013085182585659e+00
3.687569539764718130e+00
3.663287390532415699e+00
3.639165560607687588e+00
3.615202977214699853e+00
3.591398571679770502e+00
3.567751279431375266e+00
3.544260040000142276e+00
3.520923797018856494e+00
3.497741498222457501e+00
3.474712095448038163e+00
3.451834544634848179e+00
3.429107805824290978e+00
3.406530843159925048e+00
3.384102624887464827e+00
3.361822123354777592e+00
3.339688315011886566e+00
3.317700180410972255e+00
3.295856704206364451e+00
3.274156875154553781e+00
3.252599686114181043e+00
3.231184134046045209e+00
3.209909220013099418e+00
3.188773949180449208e+00
3.167777330815359171e+00
3.146918378287244966e+00
3.126196243801867336e+00
3.105610252746595190e+00
3.085159552060564803e+00
3.064843288436062796e+00
3.044660612297554803e+00
3.024610677801687686e+00
3.004692642837288208e+00
2.984905669025361696e+00
2.965248921719096931e+00
2.945721570003859036e+00
2.926322786697195699e+00
2.907051748348835396e+00
2.887907635240683391e+00
2.868889631386829286e+00
2.849996924533539033e+00
2.831228706159261144e+00
2.812584171474624917e+00
2.794062519422436441e+00
2.775662952677685258e+00
2.757384677647540361e+00
2.739226904471348867e+00
2.721188847020641344e+00
2.703269722899125149e+00
2.685468753442689760e+00
2.667785163719405439e+00
2.650218182529520128e+00
2.632767042405465219e+00
2.615430979611848006e+00
2.598209234145460123e+00
2.581101049735271324e+00
2.564105673842431266e+00
2.547222357660271719e+00
2.530450356114300803e+00
2.513788927862210532e+00
2.497237335293872373e+00
2.480794844531335475e+00
2.464460725428832877e+00
2.448234251572773967e+00
2.432114700281751585e+00
2.416101352606536690e+00
2.400193493330081029e+00
2.384390410967516694e+00
2.368691397766155227e+00
2.353095749705488515e+00
2.337602766497190121e+00
2.322211751585111728e+00
2.306922012145286249e+00
2.291732859085925611e+00
2.276643607047423412e+00
2.261653574402353595e+00
2.246762083255467779e+00
2.231968459443701036e+00
2.217272032536164339e+00
2.202672135834154332e+00
2.188168106371143562e+00
2.173759284912785361e+00
2.159445015956915181e+00
2.145224647733546153e+00
2.131097532051992705e+00
2.117063004469831977e+00
2.103120460705734995e+00
2.089269335459246868e+00
2.075509065710844592e+00
2.061839090721941936e+00
2.048258852034886335e+00
2.034767793472957553e+00
2.021365361140373018e+00
2.008051003422280711e+00
1.994824170984766276e+00
1.981684316774847687e+00
1.968630896020477250e+00
1.955663366230542710e+00
1.942781187194864589e+00
1.929983820984198628e+00
1.917270731950235341e+00
1.904641386725597574e+00
1.892095254223845169e+00
1.879631805639469633e+00
1.867250514447898357e+00
1.854950856405493065e+00
1.842732309549548475e+00
1.830594354198295193e+00
1.818536472950896599e+00
1.806558150687451292e+00
1.794658874568992424e+00
1.782838134037486144e+00
1.771095420815834487e+00
1.759430228907872262e+00
1.747842054598369277e+00
1.736330396453030556e+00
1.724894755318493234e+00
1.713534634322330774e+00
1.702249538873049417e+00
1.691038976660090842e+00
1.679902457653830838e+00
1.668839494105578414e+00
1.657849600547578239e+00
1.646932293793007984e+00
1.636087092935980536e+00
1.625313519351543334e+00
1.614611096695677039e+00
1.603979350905297085e+00
1.593417810198253459e+00
1.582926005073329812e+00
1.572503468310244790e+00
1.562149734969650483e+00
1.551864342393134644e+00
1.541646830203217799e+00
1.531496740303355031e+00
1.521413616877937081e+00
1.511397006392287246e+00
1.501446457592664041e+00
1.491561521506259425e+00
1.481741751441201238e+00
1.471986702986550100e+00
1.462295934012300958e+00
1.452669004669384645e+00
1.443105477389663882e+00
1.433604916885937497e+00
1.424166890151938425e+00
1.414790966462332378e+00
1.405476717372721840e+00
1.396223716719641406e+00
1.387031540620560444e+00
1.377899767473883763e+00
1.368827977958948949e+00
1.359815755036028584e+00
1.350862683946329579e+00
1.341968352211992954e+00
1.333132349636094283e+00
1.324354268302642801e+00
1.315633702576583186e+00
1.306970249103792447e+00
1.298363506811084145e+00
1.289813076906204614e+00
1.281318562877834744e+00
1.272879570495590418e+00
1.264495707810020297e+00
1.256166652738767819e+00
1.247892147755026881e+00
1.239671864919487998e+00
1.231505476812447819e+00
1.223392657114930726e+00
1.215333080608692828e+00
1.207326423176219077e+00
1.199372361800724374e+00
1.191470574566153573e+00
1.183620740657180814e+00
1.175822540359211299e+00
1.168075655058378848e+00
1.160379767241548565e+00
1.152734560496312843e+00
1.145139719510996468e+00
1.137594930074652622e+00
1.130099879077065106e+00
1.122654254508747673e+00
1.115257745460942251e+00
1.107910042125622496e+00
1.100610835795491127e+00
1.093359818863980815e+00
1.086156684825254404e+00
1.079001128274203358e+00
1.071892844906450204e+00
1.064831531518346530e+00
1.057816886006974766e+00
1.050848607370146626e+00
1.043926395706402666e+00
1.037049952215014503e+00
1.030218979195983486e+00
1.023433180050040470e+00
1.016692259278646704e+00
1.009995922483991837e+00
1.003343876368996801e+00
9.967358287373117021e-01
9.901714884933169314e-01
9.836505656421226096e-01
9.771727712895676987e-01
9.707378176422223337e-01
9.643454180073859350e-01
9.579952867930876526e-01
9.516871395080870322e-01
9.454206927618722389e-01
9.391956642646623887e-01
9.330117728274061051e-01
9.268687383617817410e-01
9.207662818801980453e-01
9.147041254957922751e-01
9.086819924224327494e-01
9.026996069747172946e-01
8.967566945679732449e-01
8.908529817182587740e-01
8.849881960423600091e-01
8.791620662577945833e-01
8.733743221828094150e-01
8.676246947363812634e-01
8.619129159382170613e-01
8.562387189087524719e-01
8.506018378691539983e-01
8.450020081413178730e-01
8.394389661478699471e-01
8.339124494121663567e-01
8.284221965582917457e-01
8.229679473110622645e-01
8.175494424960226825e-01
8.121664240394483869e-01
8.068186349683447167e-01
8.015058194104454081e-01
7.962277225942155923e-01
7.909840908488494637e-01
7.857746716042713908e-01
7.805992133911354713e-01
7.754574658408257548e-01
7.703491796854553542e-01
7.652741345804846551e-01
7.602322161114364318e-01
7.552232445853309661e-01
7.502470313213939201e-01
7.453033879623093272e-01
7.403921264742215902e-01
7.355130591467337053e-01
7.306659985929080392e-01
7.258507577492665508e-01
7.210671498757893483e-01
7.163149885559165764e-01
7.115940876965476392e-01
7.069042615280406450e-01
7.022453246042137387e-01
6.976170918023429923e-01
6.930193783231648474e-01
6.884519996908743389e-01
6.839147717531259829e-01
6.794075106810337772e-01
6.749300329691698686e-01
6.704821554355666624e-01
6.660636952217154905e-01
6.616744697925667218e-01
6.573142969365304289e-01
6.529829947654748334e-01
6.486803817147283047e-01
6.444062765430782491e-01
6.401604983327711107e-01
6.359428664895130368e-01
6.317532007424681018e-01
6.275913211442610828e-01
6.234570480709751283e-01
6.193502022221527570e-01
6.152706046207961910e-01
6.112180766133658016e-01
6.071924398697819969e-01
6.031935163834241109e-01
5.992211284711309593e-01
5.952750987732005061e-01
5.913552502533891975e-01
5.874614061989135161e-01
5.835933902204490931e-01
5.797510262521303748e-01
5.759341385515515110e-01
5.721425516997651339e-01
5.683760906012836900e-01
5.646345804840787741e-01
5.609178468995810185e-01
5.572257157226805369e-01
5.535580131517260360e-01
5.499145657085260375e-01
5.462952002383479888e-01
5.426997439099187082e-01
5.391280242154244950e-01
5.355798689705097981e-01
5.320551063142793247e-01
5.285535647092967082e-01
5.250750729415845086e-01
5.216194601206254333e-01
5.181865556793596728e-01
5.147761893741882311e-01
5.113881912849704836e-01
5.080223918150252871e-01
5.046786216911312017e-01
5.013567119635246039e-01
4.980564940059024615e-01
4.947777995154202801e-01
4.915204605126930471e-01
4.882843093417950087e-01
4.850691786702589492e-01
4.818749014890776894e-01
4.787013111127028653e-01
4.755482411790453723e-01
4.724155256494756427e-01
4.693029988088225357e-01
4.662105168417287615e-01
4.631382239651288812e-01
4.600860918199259353e-01
4.570540016477370182e-01
4.540418348819121319e-01
4.510494731475354624e-01
4.480767982614245470e-01
4.451236922321306633e-01
4.421900372599386619e-01
4.392757157368664678e-01
4.363806102466661896e-01
4.335046035648233431e-01
4.306475786585569621e-01
4.278094186868198201e-01
4.249900070002977648e-01
4.221892271414108277e-01
4.194069628443122810e-01
4.166430980348891921e-01
4.138975168307622576e-01
4.111701035412851368e-01
4.084607426675457287e-01
4.057693189023652836e-01
4.030957171302986808e-01
4.004398224276345397e-01
3.978015200623944425e-01
3.951806954943342109e-01
3.925772343749429072e-01
3.899910225474433889e-01
3.874219460467920317e-01
3.848698910996785072e-01
3.823347441245262823e-01
3.798163917314926197e-01
3.773147207224680222e-01
3.748296180910768993e-01
3.723609710226766789e-01
3.699086668943589173e-01
3.674725932749485224e-01
3.650526379250040865e-01
3.626486887968178863e-01
3.602606340344152169e-01
3.578883619735555022e-01
3.555317611417316837e-01
3.531907202581699989e-01
3.508651282338307587e-01
3.485548741714071808e-01
3.462598473653265008e-01
3.439799373017495832e-01
3.417150336585706993e-01
3.394650263054178607e-01
3.372298053036523191e-01
3.350092609063690663e-01
3.328032835583970006e-01
3.306117638962980942e-01
3.284345927483685035e-01
3.262716611346371254e-01
3.241228602668670966e-01
3.219880815485549608e-01
3.198672165749308349e-01
3.177601571329585761e-01
3.156667952013350043e-01
3.135870318206523955e-01
3.115208892406879926e-01
3.094683214011401673e-01
3.074292449910381309e-01
3.054035769752290186e-01
3.033912345943792221e-01
3.013921353649732793e-01
2.994061970793144845e-01
2.974333378055247223e-01
2.954734758875440237e-01
2.935265299451314536e-01
2.915924188738645007e-01
2.896710618451390773e-01
2.877623783061699636e-01
2.858662879799900303e-01
2.839827108654510157e-01
2.821115672372231931e-01
2.802527776457954256e-01
2.784062629174751113e-01
2.765719441543879609e-01
2.747497427344786081e-01
2.729395803115099439e-01
2.711413788150637272e-01
2.693550604505401402e-01
2.675805476991577336e-01
2.658177633179537591e-01
2.640666303397841141e-01
2.623270720733231753e-01
2.605990121030640205e-01
2.588823742893178737e-01
2.571770827682149374e-01
2.554830619517038381e-01
2.538002365275516814e-01
2.521285314593444404e-01
2.504678719864860126e-01
2.488181836241994682e-01
2.471793921635261904e-01
2.455514236713261522e-01
2.439342044902779727e-01
2.423276612388785001e-01
2.407317208114435059e-01
2.391463103781071298e-01
2.375713573848222682e-01
2.360067895533601856e-01
2.344525348813105703e-01
2.329085216420820337e-01
2.313746783849014999e-01
2.298509339348145109e-01
2.283372173926853377e-01
2.268334581351963697e-01
2.253395858148489750e-01
2.238555303599628621e-01
2.223812219746764129e-01
2.209165911389466830e-01
2.194615686085488182e-01
2.180160854150769989e-01
2.165800728659437735e-01
2.151534625443802251e-01
2.137361863094362213e-01
2.123281762959797203e-01
2.109293667193964938e-01
2.095397189237344915e-01
2.081591846942752178e-01
2.067877087558499249e-01
2.054252360190106652e-01
2.040717115800308179e-01
2.027270807209047565e-01
2.013912889093479319e-01
2.000642817987969835e-01
1.987460052284093226e-01
1.974364052230637434e-01
1.961354279933600064e-01
1.948430199356189219e-01
1.935591276318824883e-01
1.922836978499135596e-01
1.910166775431962616e-01
1.897580138509357417e-01
1.885076540980582527e-01
1.872655457952111524e-01
1.860316366387626263e-01
1.848058745108022149e-01
1.835882074791404805e-01
1.823785837973090074e-01
1.811769519045605681e-01
1.799832604258687352e-01
1.787974581719284362e-01
1.776194941391555926e-01
1.764493175096871758e-01
1.752868776513813454e-01
1.741321241178170331e-01
1.729850066482946369e-01
1.718454751678353543e-01
1.707134797871815990e-01
1.695889708027969178e-01
1.684718986968656296e-01
1.673622141372934635e-01
1.662598679777070321e-01
1.651648112574541638e-01
1.640769952016037092e-01
1.629963712209454851e-01
1.619228909119904691e-01
1.608565060569707716e-01
1.597971686238395805e-01
1.587448307662710778e-01
1.576994448236604951e-01
1.566609633211241692e-01
1.556293389694996809e-01
1.546045246653454663e-01
1.535864734909412332e-01
1.525751387142874893e-01
1.515704737891060416e-01
1.505724323548397470e-01
1.495809682366525117e-01
1.485960354454293753e-01
1.476175881777762600e-01
1.466455808160203600e-01
1.456799679282099191e-01
1.447207042681141753e-01
1.437677447752236104e-01
1.428210445747494228e-01
1.418805589776244158e-01
1.409462434805020536e-01
1.400180537657569058e-01
1.390959457014849243e-01
1.381798753415027226e-01
1.372697989253484074e-01
1.363656728782808858e-01
1.354674538112800586e-01
1.345750985210473205e-01
1.336885639900046163e-01
1.328078073862954678e-01
1.319327891278206100e-01
1.310634776879812946e-01
1.301998409334376161e-01
1.293418467396970362e-01
1.284894630327157727e-01
1.276426577888979119e-01
1.268013990350957687e-01
1.259656548486103034e-01
1.251353933571902055e-01
1.243105827390328932e-01
1.234911912227836250e-01
1.226771870875359993e-01
1.218685386628320932e-01
1.210652143286618521e-01
1.202671825154638940e-01
1.194744117041246917e-01
1.186868704259790297e-01
1.179045272628102409e-01
1.171273508468494290e-01
1.163553098607764263e-01
1.155883730377189472e-01
1.148265091612529487e-01
1.140696870654029638e-01
1.133178756346413518e-01
1.125710438038891037e-01
1.118291605585151616e-01
1.110921949343366966e-01
1.103601160176194557e-01
1.096328929450769707e-01
1.089104949038714742e-01
1.081928911316130948e-01
1.074800509163602313e-01
1.067719435966198172e-01
1.060685385613466120e-01
1.053698052499440208e-01
1.046757131522634277e-01
1.039862318086044179e-01
1.033013308097151112e-01
1.026209797967914950e-01
1.019451484614782022e-01
1.012738065458677894e-01
1.006069238425010559e-01
9.994447019436733526e-02
9.928641549490382912e-02
9.863272968799637053e-02
9.798338276797871615e-02
9.733834477963290710e-02
9.669758581818943544e-02
9.606107602932675849e-02
9.542878560917189557e-02
9.480068480429977573e-02
9.417674391173368187e-02
9.355693327894534783e-02
9.294122330385437558e-02
9.232958443482899846e-02
9.172198717068541507e-02
9.111840206068805292e-02
9.051879970454987379e-02
8.992315075243167977e-02
8.933142590494294599e-02
8.874359591314102957e-02
8.815963157853159982e-02
8.757950375306880475e-02
8.700318333915468827e-02
8.643064128963988402e-02
8.586184860782300476e-02
8.529677634745089221e-02
8.473539561271889453e-02
8.417767755827029741e-02
8.362359338919693463e-02
8.307311436103860525e-02
8.252621177978337885e-02
8.198285700186781766e-02
8.144302143417640749e-02
8.090667653404214066e-02
8.037379380924608574e-02
7.984434481801752637e-02
7.931830116903418326e-02
7.879563452142177016e-02
7.827632086389318955e-02
7.776038813685176576e-02
7.724783280759790760e-02
7.673863601873937013e-02
7.623277890763306697e-02
7.573024260638568095e-02
7.523100824185312285e-02
7.473505693564078123e-02
7.424236980410370279e-02
7.375292795834613446e-02
7.326671250422206461e-02
7.278370454233472342e-02
7.230388516803680499e-02
7.182723547143068932e-02
7.135373653736792887e-02
7.088336944544981755e-02
7.041611527002691884e-02
6.995195508019924624e-02
6.949086993981648530e-02
6.903284090747750790e-02
6.857784903653094122e-02
6.812587537507462654e-02
6.767690096595591065e-02
6.723090684677181239e-02
6.678787404986849530e-02
6.634778360234190597e-02
6.591061652603721899e-02
6.547635383754910054e-02
6.504497654822184727e-02
6.461646566414898374e-02
6.419080218617373434e-02
6.376796710988862082e-02
6.334794142563560104e-02
6.293070611850630491e-02
6.251624216834156256e-02
6.210453054973193165e-02
6.169555223201717009e-02
6.128928817928673556e-02
6.088571935037939697e-02
6.048482669888336632e-02
6.008659117313649989e-02
5.969099371622589578e-02
5.929801526598831030e-02
5.890763675500983176e-02
5.851983911062599852e-02
5.813460325492196545e-02
5.775191010473215009e-02
5.737174057164064200e-02
5.699407556198082120e-02
5.661889597683556624e-02
5.624618271203733755e-02
5.587591665816786513e-02
5.550807870055855797e-02
5.514264971929011550e-02
5.477961058919272180e-02
5.441894217984614979e-02
5.406062535557946969e-02
5.370464097547138216e-02
5.335096989334991990e-02
5.299959295779257951e-02
5.265049101212644633e-02
5.230364489442788922e-02
5.195903543752296294e-02
5.161664490706397573e-02
5.127648571482253809e-02
5.093855624853099034e-02
5.060284353768893656e-02
5.026933462997174029e-02
4.993801659123017767e-02
4.960887650549058309e-02
4.928190147495500884e-02
4.895707862000086424e-02
4.863439507918131122e-02
4.831383800922492422e-02
4.799539458503584988e-02
4.767905199969393881e-02
4.736479746445439176e-02
4.705261820874818285e-02
4.674250148018169876e-02
4.643443454453687752e-02
4.612840468577136810e-02
4.582439920601818345e-02
4.552240542558609604e-02
4.522241068295929090e-02
4.492440233479751827e-02
4.462836775593621852e-02
4.433429433938622377e-02
4.404216949633409095e-02
4.375198065614181731e-02
4.346371526634695143e-02
4.317736079266273896e-02
4.289290471897781731e-02
4.261033454735654175e-02
4.232963779803870785e-02
4.205080200943967644e-02
4.177381473815049151e-02
4.149866355893758879e-02
4.122533606474312884e-02
4.095381986668471946e-02
4.068410259405551288e-02
4.041617189432435142e-02
4.015001543313548305e-02
3.988562089430886665e-02
3.962297597983990838e-02
3.936206840989957267e-02
3.910288592283450715e-02
3.884541627516675810e-02
3.858964724159406889e-02
3.833556661498967177e-02
3.808316220640233646e-02
3.783242184505648115e-02
3.758333337835198518e-02
3.733588467186439025e-02
3.709006360934472696e-02
3.684585809271954948e-02
3.660325604209110906e-02
3.636224539573707643e-02
3.612281411011078469e-02
3.588495015984107667e-02
3.564864153773231875e-02
3.541387625476455359e-02
3.518064234009322944e-02
3.494892784104954020e-02
3.471872082314007846e-02
3.449000937004703671e-02
3.426278158362826287e-02
3.403702577205217072e-02
3.381273888125940763e-02
3.358991650666780932e-02
3.336855044499746625e-02
3.314863250010856299e-02
3.293015448300111447e-02
3.271310821181524359e-02
3.249748551183096607e-02
3.228327821546825294e-02
3.207047816228716236e-02
3.185907719898758983e-02
3.164906717940954572e-02
3.144043996453290551e-02
3.123318742247753466e-02
3.102730142850336492e-02
3.082277386501017236e-02
3.061959662153783401e-02
3.041776159476612326e-02
3.021726068851477570e-02
3.001808581374358978e-02
2.982022888855223597e-02
2.962368183818046841e-02
2.942843659500793060e-02
2.923448509855424565e-02
2.904181929547908214e-02
2.885043113958199804e-02
2.866031259180261762e-02
2.847145562022046494e-02
2.828385220005504366e-02
2.809749431366590638e-02
2.791237395055248122e-02
2.772848310735426952e-02
2.754581378785068285e-02
2.736435800296109500e-02
2.718410777074494258e-02
2.700505511640152734e-02
2.682719207227023811e-02
2.665051067783035313e-02
2.647500297970113714e-02
2.630066103164188998e-02
2.612747689455180780e-02
2.595544263647014960e-02
2.578455033257607415e-02
2.561479206518871982e-02
2.544615992376727392e-02
2.527864600491080971e-02
2.511224241235845284e-02
2.494694125698925652e-02
2.478273465682223273e-02
2.461961473701644240e-02
2.445757362987083933e-02
2.429660347482442972e-02
2.413669641845614042e-02
2.397784461448486393e-02
2.382004022376955216e-02
2.366327541430901515e-02
2.350754236124216051e-02
2.335283324684777478e-02
2.319914026054464840e-02
2.304645559889158604e-02
2.289477146558729914e-02
2.274408007147056196e-02
2.259437363452004160e-02
2.244564437985441252e-02
2.229788453973234608e-02
2.215108635355245159e-02
2.200524206785335612e-02
2.186034393631363509e-02
2.171638421975181574e-02
2.157335518612646386e-02
2.143124911053605891e-02
2.129005827521911198e-02
2.114977496955406516e-02
2.101039159414157254e-02
2.087190346036400801e-02
2.073430709576444542e-02
2.059759858502425989e-02
2.046177398592211386e-02
2.032682932933402645e-02
2.019276061923342205e-02
2.005956383269100543e-02
1.992723491987490742e-02
1.979576980405054962e-02
1.966516438158071728e-02
1.953541452192559397e-02
1.940651606764264014e-02
1.927846483438675276e-02
1.915125661091011608e-02
1.902488715906227104e-02
1.889935221379016039e-02
1.877464748313801418e-02
1.865076864824748160e-02
1.852771136335750954e-02
1.840547125580439813e-02
1.828404392602185971e-02
1.816342494754087655e-02
1.804360986698986050e-02
1.792459420409452109e-02
1.780637345167792110e-02
1.768894307566052509e-02
1.757229851506008148e-02
1.745643518199176472e-02
1.734134846166804009e-02
1.722703371239873993e-02
1.711348626559107758e-02
1.700070142574957449e-02
1.688867447047615739e-02
1.677740065047005763e-02
1.666687518952785635e-02
1.655709328454354687e-02
1.644805010550839941e-02
1.633974079551109987e-02
1.623216047073764226e-02
1.612530422047137729e-02
1.601916710709304359e-02
1.591374416608068443e-02
1.580903040600974141e-02
1.570502080855297466e-02
1.560171032848048714e-02
1.549909389365978531e-02
1.539716640505566815e-02
1.529592273673034165e-02
1.519535773584332165e-02
1.509546622265147894e-02
1.499624299050907744e-02
1.489768280586767357e-02
1.479978040827624117e-02
1.470253051038105004e-02
1.460592779792573535e-02
1.450996692975132195e-02
1.441464253779612542e-02
1.431994922709587878e-02
1.422588157578361795e-02
1.413243413508973728e-02
1.403960142934201558e-02
1.394737795596553975e-02
1.385575818548279506e-02
1.376473656151358180e-02
1.367430750077505523e-02
1.358446539308175507e-02
1.349520460134552742e-02
1.340651946157561669e-02
1.331840428287859278e-02
1.323085334745835798e-02
1.314386091061622505e-02
1.305742120075079407e-02
1.297152841935807557e-02
1.288617674103139168e-02
1.280136031346141602e-02
1.271707325743621358e-02
1.263330966684114882e-02
1.255006360865899145e-02
1.246732912296982451e-02
1.238510022295108599e-02
1.230337823275084314e-02
1.222218086278223544e-02
1.214150769902666398e-02
1.206135692649987039e-02
1.198172668569539787e-02
1.190261507258461027e-02
1.182402013861662271e-02
1.174593989071838658e-02
1.166837229129461494e-02
1.159131525822781547e-02
1.151476666487831826e-02
1.143872434008420466e-02
1.136318606816139401e-02
1.128814958890356560e-02
1.121361259758219334e-02
1.113957274494657354e-02
1.106602763722375551e-02
1.099297483611862483e-02
1.092041185881382701e-02
1.084833617796980218e-02
1.077674522172481116e-02
1.070563637369487640e-02
1.063500697297384279e-02
1.056485431413332551e-02
1.049517564722273096e-02
1.042596817776928961e-02
1.035722906677798497e-02
1.028895543073163332e-02
1.022114434159081438e-02
1.015379282679390247e-02
1.008689786925709084e-02
1.002045640737433442e-02
9.954465335017412264e-03
9.888921501535872030e-03
9.823821711757056013e-03
9.759162725986121958e-03
9.694941260005992753e-03
9.631153985077413673e-03
9.567797527938900343e-03
9.504868470806757813e-03
9.442363351375115260e-03
9.380278662815860063e-03
9.318610853778701991e-03
9.257356328391124628e-03
9.196511446258402722e-03
9.136072522463626472e-03
9.076035827567652953e-03
9.016397587609161629e-03
8.957153984104597108e-03
8.898301154048203834e-03
8.839835189912039967e-03
8.781752139645923605e-03
8.724048006677505643e-03
8.666718749912195180e-03
8.609760283733204622e-03
8.553168478001556621e-03
8.496939158056040706e-03
8.441068104713268794e-03
8.385551054267619681e-03
8.330383698491268529e-03
8.275561684634211157e-03
8.221080615424198115e-03
8.166936049066809283e-03
8.113123499245391418e-03
8.059638435121089378e-03
8.006476990331494112e-03
7.953651684587266166e-03
7.901167718891446978e-03
7.849023810048936026e-03
7.797218650479593657e-03
7.745750908218253239e-03
7.694619226914675182e-03
7.643822225833605925e-03
7.593358499854724157e-03
7.543226619472664235e-03
7.493425130797037870e-03
7.443952555552382083e-03
7.394807391078219057e-03
7.345988110329005824e-03
7.297493161874151618e-03
7.249320969898045627e-03
7.201469934200002351e-03
7.153938430194318847e-03
7.106724808910229625e-03
7.059827396991921397e-03
7.013244496698559094e-03
6.966974385904234693e-03
6.921015318098020994e-03
6.875365522383929985e-03
6.830023203480924121e-03
6.784986541722945810e-03
6.740253693058863640e-03
6.695822789052527022e-03
6.651691936882723685e-03
6.607859219343196165e-03
6.564322694842658276e-03
6.521080397404758686e-03
6.478130336668122546e-03
6.435470497886315068e-03
6.393098841927853659e-03
6.351013305276232215e-03
6.309211800029871677e-03
6.267692213902177276e-03
6.226452410221489965e-03
6.185490227931102897e-03
6.144803481589286576e-03
6.104389961369242022e-03
6.064247433059145875e-03
6.024373638062118300e-03
5.984766293396231659e-03
5.945423091694530468e-03
5.906341701204990621e-03
5.867519765790569705e-03
5.828954904929160158e-03
5.790644713713613556e-03
5.752586762851749289e-03
5.714778598666323331e-03
5.677217743095068145e-03
5.639901693690652779e-03
5.602827923620703685e-03
5.565993881667820331e-03
5.529396992229533569e-03
5.493034655318351604e-03
5.456904246561720961e-03
5.421003117202047306e-03
5.385328594096702379e-03
5.349877979717995377e-03
5.314648552153212850e-03
5.279637565104576200e-03
5.244842247889267700e-03
5.210259805439437439e-03
5.175890402161635422e-03
5.141738716135229974e-03
5.107804393380964599e-03
5.074086874781726444e-03
5.040585579462681168e-03
5.007299904791240840e-03
4.974229226377102978e-03
4.941372898072214984e-03
4.908730251970789757e-03
4.876300598409318704e-03
4.844083225966541381e-03
4.812077401463478454e-03
4.780282369963405678e-03
4.748697354771860835e-03
4.717321557436661081e-03
4.686154157747872591e-03
4.655194313737841781e-03
4.624441161681169289e-03
4.593893816094719515e-03
4.563551369737637101e-03
4.533412893611311369e-03
4.503477436959416220e-03
4.473744027267878044e-03
4.444211670264886990e-03
4.414879349920913451e-03
4.385746028448672500e-03
4.356810646303165523e-03
4.328072122181642924e-03
4.299529353023622338e-03
4.271181214010898175e-03
4.243026558567513859e-03
4.215064218359794793e-03
4.187293003296317997e-03
4.159711701527925992e-03
4.132319079447740670e-03
4.105113881691131207e-03
4.078094831135747021e-03
4.051260628901493487e-03
4.024609954350538872e-03
3.998141465087329087e-03
3.971853796958559925e-03
3.945745564053208289e-03
3.919815358702502701e-03
3.894061751479939784e-03
3.868483291201290329e-03
3.843078504924576748e-03
3.817845897950100393e-03
3.792783953820417706e-03
3.767891134320349323e-03
3.743165879476993523e-03
3.718606607559697165e-03
3.694211715080088655e-03
3.669979576792050183e-03
3.645908545691728137e-03
3.621996953017546546e-03
3.598243108250178020e-03
3.574645299112577147e-03
3.551201791569952304e-03
3.527910829829776062e-03
3.504770636341796898e-03
3.481779411798015776e-03
3.458935335132710433e-03
3.436236563522416729e-03
3.413681232385932986e-03
3.391267455384333867e-03
3.368993324420945651e-03
3.346856909641372693e-03
3.324856259433475736e-03
3.302989400427379721e-03
3.281254337495485059e-03
3.259649053752444216e-03
3.238171510555187295e-03
3.216819647502901225e-03
3.195591382437035829e-03
3.174485153890921601e-03
3.153502264333786064e-03
3.132643489015802737e-03
3.111909391841600776e-03
3.091300497819263193e-03
3.070817293060332503e-03
3.050460224779792933e-03
3.030229701296092981e-03
3.010126092031124596e-03
2.990149727510231416e-03
2.970300899362218749e-03
2.950579860319333617e-03
2.930986824217285576e-03
2.911521965995228934e-03
2.892185421695769691e-03
2.872977288464975514e-03
2.853897624552354916e-03
2.834946449310879815e-03
2.816123743196966445e-03
2.797429447770483166e-03
2.778863465694759571e-03
2.760425660736566533e-03
2.742115857766137463e-03
2.723933842757150954e-03
2.705879362786738161e-03
2.687952126035489733e-03
2.670151801787438908e-03
2.652478020430081886e-03
2.634930373454358755e-03
2.617508413454663029e-03
2.600211654128847284e-03
2.583039570278207117e-03
2.565991597807499788e-03
2.549067133724929480e-03
2.532265536142149897e-03
2.515586124274276410e-03
2.499028178439866542e-03
2.482590940060940780e-03
2.466273611662963064e-03
2.450075356874851628e-03
2.433995300428982468e-03
2.418032528161176767e-03
2.402186087010714770e-03
2.386454985020324514e-03
2.370838191336184855e-03
2.355334636207935019e-03
2.339943210988657679e-03
2.324662768134895443e-03
2.309492121206638271e-03
2.294430044867327382e-03
2.279475274883863926e-03
2.264626508126592504e-03
2.249882402569318082e-03
2.235241577289292549e-03
2.220702612467219915e-03
2.206264049387262390e-03
2.191924390437026936e-03
2.177682099107581312e-03
2.163535599993438897e-03
2.149483278792566066e-03
2.135523482306386084e-03
2.121654518439769141e-03
2.107874656201044923e-03
2.094182125701989170e-03
2.080575118157831048e-03
2.067051785887250547e-03
2.053610242312389755e-03
2.040248561958832481e-03
2.026964780455618557e-03
2.013756894535240378e-03
2.000622862033639426e-03
1.987560601890220151e-03
1.974567994147827417e-03
1.961642879952764720e-03
1.948783061554785947e-03
1.935986302307093638e-03
1.923250326666355037e-03
1.910572820192678236e-03
1.897951429549627140e-03
1.885383762504218427e-03
1.872867566230964091e-03
1.860415046970188618e-03
1.848035423611237493e-03
1.835729519937142305e-03
1.823498111939828069e-03
1.811341927820108669e-03
1.799261647987701824e-03
1.787257905061206964e-03
1.775331283868119767e-03
1.763482321444829548e-03
1.751711507036614280e-03
1.740019282097654899e-03
1.728406040291015138e-03
1.716872127488655196e-03
1.705417841771427606e-03
1.694043433429074643e-03
1.682749104960241330e-03
1.671535011072455270e-03
1.660401258682140530e-03
1.649347906914613946e-03
1.638374967104081880e-03
1.627482402793652572e-03
1.616670129735318148e-03
1.605938015889966973e-03
1.595285881427379107e-03
1.584713498726225429e-03
1.574220592374078048e-03
1.563806839167392959e-03
1.553471868111522399e-03
1.543215260420710729e-03
1.533036549518092912e-03
1.522935221035704497e-03
1.512910712814465996e-03
1.502962414904193298e-03
1.493089669563594851e-03
1.483291771260269488e-03
1.473567966670717060e-03
1.463917454680321731e-03
1.454339386383363478e-03
1.444832865083014832e-03
1.435396946291338715e-03
1.426030637729298629e-03
1.416732899326742607e-03
1.407502643222415147e-03
1.398338733763952214e-03
1.389239987507881252e-03
1.380205173219629412e-03
1.371233011873509034e-03
1.362322176652727614e-03
1.353471292949386725e-03
1.344678938364476158e-03
1.335943642707888021e-03
1.327263887998398305e-03
1.318638108463679025e-03
1.310064690540294757e-03
1.301541972873700680e-03
1.293068246318251034e-03
1.284641753937187198e-03
1.276260691002644842e-03
1.267923204995651974e-03
1.259627395606128294e-03
1.251371314732892346e-03
1.243152966483648944e-03
1.234970307174997842e-03
1.226821245332431138e-03
1.218703641690332181e-03
1.210616349197837392e-03
1.202572049099769882e-03
1.194575472960457928e-03
1.186627075658010233e-03
1.178727283864092028e-03
1.170876496043933308e-03
1.163075082456316691e-03
1.155323385153585224e-03
1.147621717981640432e-03
1.139970366579940581e-03
1.132369588381509137e-03
1.124819612612921104e-03
1.117320640294313001e-03
1.109872844239378955e-03
1.102476369055370919e-03
1.095131331143104746e-03
1.087837818696948695e-03
1.080595891704832102e-03
1.073405581948242999e-03
1.066266893002225076e-03
1.059179800235387874e-03
1.052144250809892902e-03
1.045160163681462103e-03
1.038227429599376545e-03
1.031345911106473388e-03
1.024515442539154558e-03
1.017735830027375037e-03
1.011006851494649587e-03
1.004328256658052311e-03
9.976997670282136254e-04
9.911210759093282748e-04
9.845918483991440619e-04
9.781117213889692179e-04
9.716803035636706679e-04
9.652971754016717544e-04
9.589618891749603687e-04
9.526739689490772416e-04
9.464329105831237494e-04
9.402381817297596374e-04
9.340892218352016101e-04
9.279854421392302703e-04
9.219262256751793857e-04
9.159109272699434779e-04
9.099388735439753288e-04
9.040093629112846800e-04
8.981216655794448459e-04
8.922750235495831728e-04
8.864686506163866773e-04
8.807017323681012866e-04
8.749734261865301042e-04
8.692828612470392645e-04
8.636291385185489340e-04
8.580113307635394912e-04
8.524284825380496833e-04
8.468796101916756507e-04
8.413637018675763479e-04
8.358797175024654117e-04
8.304265888266157154e-04
8.250032193638596936e-04
8.196084844315858729e-04
8.142412311407467868e-04
8.089002783958484585e-04
8.035844168949575570e-04
7.982924091296985779e-04
7.930229893852539522e-04
7.877748637403689247e-04
7.825478467197741293e-04
7.773474729673880831e-04
7.721751309680024468e-04
7.670313397905258439e-04
7.619165953103191214e-04
7.568313702091866756e-04
7.517761139753820904e-04
7.467512529036068360e-04
7.417571900950088596e-04
7.367943054571883315e-04
7.318629557041887550e-04
7.269634743565032541e-04
7.220961717410726228e-04
7.172613349912840231e-04
7.124592280469768408e-04
7.076900916544341192e-04
7.029541433663880892e-04
6.982515775420189766e-04
6.935825653469533756e-04
6.889472547532697784e-04
6.843457705394905520e-04
6.797782142905873593e-04
6.752446643979797495e-04
6.707451760595334236e-04
6.662797812795665225e-04
6.618484888688404115e-04
6.574512844445662939e-04
6.530881304304028256e-04
6.487589660564553563e-04
6.444637073592808085e-04
6.402022471818805214e-04
6.359744551737043713e-04
6.317801777906506631e-04
6.276192382950640698e-04
6.234914367557409460e-04
6.193965500479215206e-04
6.153343318532954274e-04
6.113045126599999692e-04
6.073067997626194680e-04
6.033408772621890598e-04
5.994064060661887308e-04
5.955030238885475466e-04
5.916303452496416999e-04
5.877879614762950532e-04
5.839754407017821742e-04
5.801923278658221560e-04
5.764381447145831708e-04
5.727123898006812770e-04
5.690145384831793354e-04
5.653440429275912371e-04
5.617003321058753988e-04
5.580828117964394246e-04
5.544908645841384797e-04
5.509238498602748568e-04
5.473811038226016621e-04
5.438619394753168527e-04
5.403656466290670309e-04
5.368914919009471192e-04
5.334387187144984084e-04
5.300065472997133285e-04
5.265941746930291600e-04
5.232007747373319372e-04
5.198254980819556892e-04
5.164674721826812472e-04
5.131258013017402564e-04
5.097995665078092122e-04
5.064878256760137979e-04
5.031896134879269324e-04
4.999039414315689872e-04
4.966297978014108227e-04
4.933661476983685831e-04
4.901119330298066247e-04
4.868660725095377319e-04
4.836274616578214915e-04
4.803955368397363449e-04
4.771726485648515549e-04
4.739600992637072754e-04
4.707589055880483380e-04
4.675700498846538595e-04
4.643944801953409822e-04
4.612331102569592906e-04
4.580868195013946599e-04
4.549564530555681176e-04
4.518428217414351394e-04
4.487467020759891719e-04
4.456688362712561040e-04
4.426099322342980612e-04
4.395706635672125382e-04
4.365516695671312606e-04
4.335535552262239256e-04
4.305768912316927806e-04
4.276222139657763098e-04
4.246900255057482038e-04
4.217807936239166555e-04
4.188949517876275038e-04
4.160328991592595173e-04
4.131950005962273221e-04
4.103815866509810217e-04
4.075929535710050592e-04
4.048293632988216864e-04
4.020910434719858137e-04
3.993781874230885342e-04
3.966909541797562018e-04
3.940294684646496724e-04
3.913938206954673395e-04
3.887840669849404723e-04
3.862002291408366309e-04
3.836422946659576064e-04
3.811102167581428357e-04
3.786039143102647403e-04
3.761232719102317610e-04
3.736681398409875997e-04
3.712383340805105688e-04
3.688336363018162472e-04
3.664537938729535232e-04
3.640985198570070337e-04
3.617674930120967853e-04
3.594603577913775029e-04
3.571767243430410159e-04
3.549161685103125168e-04
3.526782318314529473e-04
3.504624215397587807e-04
3.482682105635609383e-04
3.460950375262274994e-04
3.439423067461600154e-04
3.418093882367957866e-04
3.396956177066075906e-04
3.376002965591026533e-04
3.355226918928253042e-04
3.334620365013535618e-04
3.314175288733009223e-04
3.293883331923164138e-04
3.273735793370837832e-04
3.253723628813235021e-04
3.233837450937899474e-04
3.214067529382729198e-04
3.194403790735979146e-04
3.174835818536247663e-04
3.155352853272503592e-04
3.135943792384053748e-04
3.116597190260559725e-04
3.097301258242038434e-04
3.078043864618853435e-04
3.058812534631735530e-04
3.039594450471753495e-04
3.020376451280333595e-04
3.001145033149256328e-04
2.981886349120645586e-04
2.962586209186999012e-04
2.943230080291145715e-04
2.923803086326277716e-04
2.904290008135935845e-04
2.884675283514009751e-04
2.864943109081200348e-04
2.845177965010245598e-04
2.825470053225244481e-04
2.805829233171942176e-04
2.786264971427669743e-04
2.766786341701364714e-04
2.747402024833538029e-04
2.728120308796296262e-04
2.708949088693336196e-04
2.689895866759941037e-04
2.670967752362998293e-04
2.652171462000971051e-04
2.633513319303916944e-04
2.614999255033484361e-04
2.596634807082907567e-04
2.578425120477025132e-04
2.560374947372251204e-04
2.542488647056596104e-04
2.524770185949658198e-04
2.507223137602623353e-04
2.489850682698281745e-04
2.472655609050999122e-04
2.455640311606735785e-04
2.438806792443042515e-04
2.422156660769056512e-04
2.405691132925518740e-04
2.389411032384746282e-04
2.373316789750650499e-04
2.357408442758734859e-04
2.341685636276086811e-04
2.326147622301398109e-04
2.310793259964937711e-04
2.295621015528568850e-04
2.280628962385745245e-04
2.265814781061506488e-04
2.251175759212495396e-04
2.236708791626931987e-04
2.222410380224630827e-04
2.208276634056996696e-04
2.194303269307021874e-04
2.180485609289298341e-04
2.166818584449999073e-04
2.153296732366888886e-04
2.139914197749324975e-04
2.126664732438250140e-04
2.113541695406207963e-04
2.100538052757322484e-04
2.087646377727310119e-04
2.074858850683478854e-04
2.062167259124723093e-04
2.049562997681537752e-04
2.037037068115998199e-04
2.024580079321772186e-04
2.012182247324119030e-04
1.999833395279884197e-04
1.987522953477514204e-04
1.975239959337035482e-04
1.962973057410067116e-04
1.950710499379819753e-04
1.938440144061089922e-04
1.926149457400276285e-04
1.913825512475355521e-04
1.901454989495898859e-04
1.889024175803067740e-04
1.876518965869610291e-04
1.863924861299875698e-04
1.851227013013953136e-04
1.838493588606445774e-04
1.825799900961381204e-04
1.813151873929405285e-04
1.800555194244475826e-04
1.788015311523840636e-04
1.775537438268052159e-04
1.763126549860963678e-04
1.750787384569725525e-04
1.738524443544799711e-04
1.726341990819939059e-04
1.714244053312200216e-04
1.702234420821940669e-04
1.690316646032816031e-04
1.678494044511791977e-04
1.666769694709126074e-04
1.655146437958379441e-04
1.643626878476414036e-04
1.632213383363389950e-04
1.620908082602777597e-04
1.609712869061338206e-04
1.598629398489138183e-04
1.587659089519543958e-04
1.576803123669219553e-04
1.566062445338139856e-04
1.555437761809571381e-04
1.544929543250084193e-04
1.534538022709549198e-04
1.524263196121135701e-04
1.514104822301322523e-04
1.504062422949880380e-04
1.494135282649884080e-04
1.484322448867709003e-04
1.474622731953029197e-04
1.465034705138827144e-04
1.455556704541378574e-04
1.446186829160263040e-04
1.436922940878360123e-04
1.427762664461848345e-04
1.418703387560214660e-04
1.409742260706239544e-04
1.400876197316006208e-04
1.392101873688899520e-04
1.383415729007601933e-04
1.374813965338105416e-04
1.366292547629694375e-04
1.357847203714956767e-04
1.349473424309781660e-04
1.341166463013357066e-04
1.332921336308178070e-04
1.324732823560034094e-04
1.316595467018017568e-04
1.308503571814522305e-04
1.300451205965239975e-04
1.292432200369170951e-04
1.284440148808608584e-04
1.276468407949150321e-04
1.268510097339693905e-04
1.260558099412436022e-04
1.252605059482880974e-04
1.244643385749826859e-04
1.236665249295375594e-04
1.228662584084929668e-04
1.220627086967189290e-04
1.212550217674164185e-04
1.204423198821156924e-04
1.196237021649822891e-04
1.188017676262658590e-04
1.179799502179301138e-04
1.171588223271104911e-04
1.163389368616607559e-04
1.155208272501539362e-04
1.147050074418820787e-04
1.138919719068560592e-04
1.130821956358064634e-04
1.122761341401822048e-04
1.114742234521515002e-04
1.106768801246015580e-04
1.098845012311384022e-04
1.090974643660877941e-04
1.083161276444938087e-04
1.075408297021198246e-04
1.067718896954482122e-04
1.060096073016801707e-04
1.052542627187366095e-04
1.045061166652567792e-04
1.037654103805992200e-04
1.030323656248414505e-04
1.023071846787798860e-04
1.015900503439305164e-04
1.008811259425278217e-04
1.001805553175254770e-04
9.948846283259617598e-05
9.880495337213148236e-05
9.813011234124258836e-05
9.746400566575909514e-05
9.680667979222983954e-05
9.615816168792271784e-05
9.551845884082445540e-05
9.488755925964136560e-05
9.426543147379823850e-05
9.365202453343907270e-05
9.304726800942692629e-05
9.245107199334371350e-05
9.186332709749086883e-05
9.128390445488837124e-05
9.071265571927538112e-05
9.014941306511011832e-05
8.959398918756967243e-05
8.904617730255061261e-05
8.850575114666809316e-05
8.797246497725646336e-05
8.744605357236907774e-05
8.692623223077820122e-05
8.641269677197557829e-05
8.590512353617149794e-05
8.540316938429548478e-05
8.490647169799608223e-05
8.441464837964068988e-05
8.392729785231618691e-05
8.344399905982810540e-05
8.296431146670107753e-05
8.248777505817880850e-05
8.201391034022391391e-05
8.154221833951838050e-05
8.107218060346294279e-05
8.060325920017735409e-05
8.013489671850053560e-05
7.966651626799021047e-05
7.919752147892358146e-05
7.872729650229649064e-05
7.825520600982392087e-05
7.778059519393990093e-05
7.730278976779736996e-05
7.682109596526866539e-05
7.633480054094477754e-05
7.584317077013585104e-05
7.534545444887113066e-05
7.484087989389864957e-05
7.432865594268594763e-05
7.380797273275230437e-05
7.327952915928816560e-05
7.274509747446602137e-05
7.220561788939884357e-05
7.166200208035167121e-05
7.111513318874067529e-05
7.056586582113376870e-05
7.001502604925048418e-05
6.946341140996177110e-05
6.891179090529065950e-05
6.836090500241128430e-05
6.781146563364957652e-05
6.726415619648300572e-05
6.671963155354051231e-05
6.617851803260313089e-05
6.564141342660296033e-05
6.510888699362389555e-05
6.458147945690142426e-05
6.405970300482247788e-05
6.354404129092600074e-05
6.303494943390215049e-05
6.253285401759275887e-05
6.203815309099130462e-05
6.155121616824269664e-05
6.107238422864388384e-05
6.060196971664296068e-05
6.014025654183978382e-05
5.968750007898578915e-05
5.924392716798390369e-05
5.880973611388900640e-05
5.838509668690719631e-05
5.797015012239631435e-05
5.756500912086576709e-05
5.716975784797647937e-05
5.678445193454129407e-05
5.640911847652429448e-05
5.604375603504131254e-05
5.568833463635973230e-05
5.534279577189846287e-05
5.500705239822831780e-05
5.468098893707137821e-05
5.436446127530142640e-05
5.405729676494386456e-05
5.375929422317557926e-05
5.347022393232533444e-05
5.318982763987320224e-05
5.291781855845096953e-05
5.265388136584200245e-05
5.239767220498118535e-05
5.214881868395523934e-05
5.190691987600222078e-05
5.167154631951191438e-05
5.144224001802565017e-05
5.121851444023632388e-05
5.099985451998857987e-05
5.078571665627853332e-05
5.057552871325387861e-05
5.036869002021396395e-05
5.016457137160966928e-05
4.996251502704361646e-05
4.976183471126988458e-05
4.956181561419416585e-05
4.936171439087378592e-05
4.916075916151760902e-05
4.895814951148622768e-05
4.875305649129170525e-05
4.854462261659773175e-05
4.833196186821960352e-05
4.811415969212414872e-05
4.789027299942997124e-05
4.765933016640709158e-05
4.742033103447719077e-05
4.717224691021356975e-05
4.691402056534097994e-05
4.664456623673605691e-05
4.636276962642679864e-05
4.606748790159284331e-05
4.575754969456546255e-05
4.543175510282743948e-05
4.508887568901337358e-05
4.472793676888789756e-05
4.435763705337169324e-05
4.398328649969581616e-05
4.360580361586960239e-05
4.322607270615425073e-05
4.284494387106217218e-05
4.246323300735744394e-05
4.208172180805567391e-05
4.170115776242391934e-05
4.132225415598109343e-05
4.094569007049734193e-05
4.057211038399445645e-05
4.020212577074577283e-05
3.983631270127607630e-05
3.947521344236199446e-05
3.911933605703139425e-05
3.876915440456379523e-05
3.842510814049025444e-05
3.808760271659328506e-05
3.775700938090722911e-05
3.743366517771768147e-05
3.711787294756188290e-05
3.680990132722862518e-05
3.650998474975813589e-05
3.621832344444246468e-05
3.593508343682494117e-05
3.566039654870054086e-05
3.539436039811575638e-05
3.513703839936857038e-05
3.488845976300871982e-05
3.464861949583728938e-05
3.441747840090694864e-05
3.419496307752191818e-05
3.398096592123792895e-05
3.377534512386241877e-05
3.357792467345418672e-05
3.338849435432364389e-05
3.320680974703273206e-05
3.303259222839491013e-05
3.286552897147532355e-05
3.270527294559049259e-05
3.255144291630856308e-05
3.240362344544920475e-05
3.226136489108359092e-05
3.212418340753458144e-05
3.199156094537643132e-05
3.186294525143500757e-05
3.173774986878769434e-05
3.161535413676341323e-05
3.149510319094271139e-05
3.137630796315759891e-05
3.125824518149164364e-05
3.114015737027996447e-05
3.102125285010920420e-05
3.090070573781762437e-05
3.077765594649495626e-05
3.065120918548251602e-05
3.052043696037313016e-05
3.038437657301113555e-05
3.024203112149256915e-05
3.009236950016486308e-05
2.993432639962703435e-05
2.976680230672966454e-05
2.958866350457479475e-05
2.939874207251620008e-05
2.919583588615901350e-05
2.897870861736000030e-05
2.874647127752943780e-05
2.850733525744838969e-05
2.826554619846469998e-05
2.802170524223922911e-05
2.777639111491050482e-05
2.753016012709464085e-05
2.728354617388527252e-05
2.703706073485384473e-05
2.679119287404918849e-05
2.654640923999778174e-05
2.630315406570371214e-05
2.606184916864858893e-05
2.582289395079181063e-05
2.558666539857017537e-05
2.535351808289812827e-05
2.512378415916773089e-05
2.489777336724854608e-05
2.467577303148794628e-05
2.445804806071068661e-05
2.424484094821918951e-05
2.403637177179347012e-05
2.383283819369107540e-05
2.363441546064731782e-05
2.344125640387493322e-05
2.325349143906431116e-05
2.307122856638342719e-05
2.289455337047780555e-05
2.272352902047070555e-05
2.255819626996284034e-05
2.239857345703255985e-05
2.224465650423581016e-05
2.209641891860608269e-05
2.195381179165459710e-05
2.181676379937003368e-05
2.168518120221870615e-05
2.155894784514453112e-05
2.143792515756897391e-05
2.132195215339119764e-05
2.121084543098785652e-05
2.110439917321324158e-05
2.100238514739921625e-05
2.090455270535523333e-05
2.081062878336840954e-05
2.072031790220336625e-05
2.063330216710235145e-05
2.054924126778521267e-05
2.046777247844935971e-05
2.038851065776986287e-05
2.031104824889932422e-05
2.023495527946795553e-05
2.015977936158356470e-05
2.008504569183153205e-05
2.001025705127489166e-05
1.993489380545420935e-05
1.985841390438767082e-05
1.978025288257103417e-05
1.969982385897766383e-05
1.961651753705854069e-05
1.952970220474221127e-05
1.943872373443481487e-05
1.934290558302009707e-05
1.924154879185934879e-05
1.913393198679156211e-05
1.901931137813322700e-05
1.889692076067844649e-05
1.876597151369892657e-05
1.862565260094393885e-05
1.847537256771736097e-05
1.831895159189218119e-05
1.815843667806477593e-05
1.799441793028338214e-05
1.782746607738569102e-05
1.765813247299902414e-05
1.748694909554005902e-05
1.731442854821501210e-05
1.714106405901960145e-05
1.696732948073898241e-05
1.679367929094795764e-05
1.662054859201066883e-05
1.644835311108081350e-05
1.627748920010157048e-05
1.610833383580557621e-05
1.594124461971509413e-05
1.577655977814175039e-05
1.561459816218670668e-05
1.545565924774061614e-05
1.530002313548358954e-05
1.514795055088536123e-05
1.499968284420502322e-05
1.485544199049121321e-05
1.471543058958205866e-05
1.457983186610514465e-05
1.444880966947766800e-05
1.432250847390619673e-05
1.420105337838684285e-05
1.408455010670520137e-05
1.397308500743634185e-05
1.386672505394491340e-05
1.376551784438496853e-05
1.366949160170008679e-05
1.357865517362333920e-05
1.349299803267727302e-05
1.341249027617399306e-05
1.333708262621503291e-05
1.326670642969143797e-05
1.320127365828376205e-05
1.314067690846202335e-05
1.308478940148578403e-05
1.303346498340406050e-05
1.298653812505537415e-05
1.294382392206773957e-05
1.290511809485865943e-05
1.287019698863515836e-05
1.283881757339372539e-05
1.281071744392035453e-05
1.278561481979053638e-05
1.276320854536924624e-05
1.274317808981097121e-05
1.272518354705968139e-05
1.270886563584884004e-05
1.269384569970140531e-05
1.267972570692983358e-05
1.266608825063607780e-05
1.265249654871157222e-05
1.263849444383726968e-05
1.262360640348358739e-05
1.260733751991045605e-05
1.258917351016730631e-05
1.256858071609303997e-05
1.254500610431607741e-05
1.251787726625431523e-05
1.248660241811514661e-05
1.245057040089548159e-05
1.240915068038170476e-05
1.236169334714968878e-05
1.230752911656480629e-05
1.224596932878192307e-05
1.217630594874543365e-05
1.209781156618917322e-05
1.200973939563650571e-05
1.191132327640027806e-05
1.180177842204513933e-05
1.168195837305527971e-05
1.155376544616952141e-05
1.141813496653190280e-05
1.127597410198479024e-05
1.112816186306883230e-05
1.097554910302312921e-05
1.081895851778498552e-05
1.065918464599006763e-05
1.049699386897237331e-05
1.033312441076417580e-05
1.016828633809621353e-05
1.000316156039741568e-05
9.838403829795080101e-06
9.674638741114830893e-06
9.512463731880574415e-06
9.352448082314678831e-06
9.195132915337703066e-06
9.041031196568572988e-06
8.890627734324544137e-06
8.744379179621154295e-06
8.602714026172396275e-06
8.466032610390460429e-06
8.334707111385904050e-06
8.209081550967610718e-06
8.089471793642758108e-06
7.976165546616953523e-06
7.869422359794020432e-06
7.769473625776150943e-06
7.676522579863854980e-06
7.590744300055950963e-06
7.512285707049655595e-06
7.441265564240435632e-06
7.377774477722106138e-06
7.321874896286814392e-06
7.273601111425015321e-06
7.232959257325529950e-06
7.199927310875474250e-06
7.174455091660287934e-06
7.156464261963747164e-06
7.145848326767950155e-06
7.142472633753327334e-06
7.146174373298628639e-06
7.156762578480930290e-06
7.174018125075633949e-06
7.197693731556484501e-06
7.227513959095507378e-06
7.263175211563111048e-06
7.304345735527988760e-06
7.350665620257178682e-06
7.401746797716052891e-06
7.457173042568265704e-06
7.516499972175851085e-06
7.579255046599134558e-06
7.644937568596788256e-06
7.713018683625815685e-06
7.782941379841498350e-06
7.854120488097488938e-06
7.925942681945761338e-06
7.997766477636603864e-06
8.068922234118659916e-06
8.138712153038826335e-06
8.206410278742400785e-06
8.271262498272988580e-06
8.332486541372490828e-06
8.389271980481184047e-06
8.440780230737608363e-06
8.486144549978682703e-06
8.524470038739638723e-06
8.554833640254010652e-06
8.576284140453704742e-06
8.587842167968895931e-06
8.588500194128132877e-06
8.577222532958270196e-06
8.552945341184482010e-06
8.514576618230263645e-06
8.460996206217477372e-06
8.391055789966289722e-06
8.303578896995147772e-06
8.197360897520889259e-06
8.074610751409101969e-06
7.945180171780941438e-06
7.810607109581243828e-06
7.671784941558172982e-06
7.529573674512570008e-06
7.384799945297917705e-06
7.238257020820501501e-06
7.090704798039162965e-06
6.942869803965464980e-06
6.795445195663651081e-06
6.649090760250602263e-06
6.504432914896005534e-06
6.362064706822103198e-06
6.222545813303858025e-06
6.086402541668912591e-06
5.954127829297554554e-06
5.826181243622862341e-06
5.702988982130481530e-06
5.584943872358773931e-06
5.472405371898786245e-06
5.365699568394211945e-06
5.265119179541514098e-06
5.170923553089747489e-06
5.083338666840675509e-06
5.002557128648740510e-06
4.928738176421048559e-06
4.862007678117446518e-06
4.802458131750396680e-06
4.750148665385059784e-06
4.705105037139284846e-06
4.667319635183583750e-06
4.636751477741182068e-06
4.613326213087955536e-06
4.596936119552466472e-06
4.587440105515960392e-06
4.584663709412362619e-06
4.588399099728280827e-06
4.598405075002994873e-06
4.614407063828473739e-06
4.636097124849359441e-06
4.663133946762983967e-06
4.695142848319343017e-06
4.731715778321124807e-06
4.772411315623692279e-06
4.816754669135098345e-06
4.864237677816075729e-06
4.914318810680008161e-06
4.966423166792989673e-06
5.019942475273784787e-06
5.074235095293842918e-06
5.128626016077306838e-06
5.182406856900947460e-06
5.234835867094268870e-06
5.285137926039436322e-06
5.332504543171294884e-06
5.376093857977383829e-06
5.415030639997884968e-06
5.448406288825694649e-06
5.475278834106378864e-06
5.494672935538188495e-06
5.505579882872052539e-06
5.506957595911567095e-06
5.497730624513023315e-06
5.476790148585390468e-06
5.442993978090312547e-06
5.395166553042101494e-06
5.332098943507784637e-06
5.253696039319033178e-06
5.168958369013582223e-06
5.080577355123921155e-06
4.989161019404526597e-06
4.895294906688162923e-06
4.799542084885725563e-06
4.702443144986347721e-06
4.604516201057368195e-06
4.506256890244311044e-06
4.408138372770992313e-06
4.310611331939354868e-06
4.214103974129575962e-06
4.119022028800047757e-06
4.025748748487339206e-06
3.934644908806315487e-06
3.846048808449965206e-06
3.760276269189516440e-06
3.677620635874407093e-06
3.598352776432262025e-06
3.522721081868981991e-06
3.450951466268610657e-06
3.383247366793422688e-06
3.319789743683904696e-06
3.260737080258734482e-06
3.206225382914850496e-06
3.156368181127350192e-06
3.111256527449555249e-06
3.070958997513000984e-06
3.035521690027419835e-06
3.004968226780786253e-06
2.979299752639249787e-06
2.958494935547182939e-06
2.942509966527166769e-06
2.931278559679988774e-06
2.924711952184658982e-06
2.922698904298381577e-06
2.925105699356577347e-06
2.931776143772875633e-06
2.942531567039118144e-06
2.957170821725349640e-06
2.975470283479827246e-06
2.997183851029021303e-06
3.022042946177610282e-06
3.049756513808487565e-06
3.080011021882737299e-06
3.112470461439668706e-06
3.146776346596802525e-06
3.182547714549860007e-06
3.219381125572790437e-06
3.256850663017715237e-06
3.294507933315004192e-06
3.331882065973211926e-06
3.368479713579120677e-06
3.403785051797719968e-06
3.437259779372183314e-06
3.468343118123925395e-06
3.496451812952555048e-06
3.520980131835893477e-06
3.541299865829981452e-06
3.556760329069048818e-06
3.566688358765543716e-06
3.570388315210134276e-06
3.567142081771687867e-06
3.556209064897282533e-06
3.536826194112211223e-06
3.508207922019969938e-06
3.469546224302263657e-06
3.420073847894307740e-06
3.363054993656722156e-06
3.301156816144142448e-06
3.234983455737125512e-06
3.165119399648176027e-06
3.092129481921733747e-06
3.016558883434146822e-06
2.938933131893763697e-06
2.859758101840800981e-06
2.779520014647428146e-06
2.698685438517750585e-06
2.617701288487779971e-06
2.536994826425533780e-06
2.456973661030890871e-06
2.378025747835687203e-06
2.300519389203691694e-06
2.224803234330585043e-06
2.151206279244044862e-06
2.080037866803617768e-06
2.011587686700805360e-06
1.946125775459040079e-06
1.883902516433672712e-06
1.825148639812039311e-06
1.770075222613354462e-06
1.718873688688783075e-06
1.671715808721426832e-06
1.628753700226305126e-06
1.590119827550407788e-06
1.555927001872620552e-06
1.526268381203774182e-06
1.501217470386633456e-06
1.480828121095890607e-06
1.465134531838189675e-06
1.454151247952084784e-06
1.447873161608075727e-06
1.446275511808588477e-06
1.449313884387989589e-06
1.456924212012572647e-06
1.469022774180567584e-06
1.485506197222136019e-06
1.506251454299370837e-06
1.531115865406310373e-06
1.559937097368898607e-06
1.592533163845037463e-06
1.628702425324554625e-06
1.668223589129208829e-06
1.710855709412705958e-06
1.756338187160648855e-06
1.804390770190609532e-06
1.854713553152076653e-06
1.906986977526479043e-06
1.960871831627186532e-06
2.016009250599463154e-06
2.072020716420548892e-06
2.128508057899599745e-06
2.185053450677705942e-06
2.241219417227904647e-06
2.296548826855127443e-06
2.350564895696273174e-06
2.402771186720168140e-06
2.452651609727564398e-06
2.499670421351168565e-06
2.543272225055569815e-06
2.582881971137345764e-06
2.617904956724972682e-06
2.647726825778881394e-06
2.671713569091421288e-06
2.689211524286878519e-06
2.699547375821474744e-06
2.702028154983358225e-06
2.695941239892623735e-06
2.680554355501282066e-06
2.655115573593282049e-06
2.618853312784533005e-06
2.570976338522820037e-06
2.512259290303800215e-06
2.444848410648075848e-06
2.369677657053588914e-06
2.287651028860546879e-06
2.199644436099749478e-06
2.106505699492568819e-06
2.009054550450921426e-06
1.908082631077381315e-06
1.804353494165013350e-06
1.698602603197481439e-06
1.591537332349023135e-06
1.483836966484418285e-06
1.376152701159112917e-06
1.269107642619032254e-06
1.163296807800706286e-06
1.059287124331238005e-06
9.576174305282752481e-07
8.587984754001244024e-07
7.633129186455793106e-07
6.716153306540345596e-07
5.841321925054587990e-07
5.012618959703699657e-07
4.233747435099299396e-07
3.508129482758024536e-07
2.838906341102481738e-07
2.228938355461005584e-07
1.680804978067514582e-07
1.196804768062112563e-07
7.789553914901781170e-08
4.289936213029744587e-08
1.483753373574715496e-08
-6.172447358362849039e-09
-2.004117178517812690e-08
-2.670731948728542315e-08
-2.613765971669530186e-08
-1.832705103484341726e-08
-3.298441312581196298e-09
1.889713226978519779e-08
4.818054322254992263e-08
8.444457574656256399e-08
1.275539247332586289e-07
1.773451957646548871e-07
2.336269051132977020e-07
2.961794797423481571e-07
3.647552573055337759e-07
4.390784861471451330e-07
5.188453253020718535e-07
6.037238444957170624e-07
6.933540241441140636e-07
7.873477553538518007e-07
8.852888399220822688e-07
9.867329903365749363e-07
1.091207829775583125e-06
1.198212892108013207e-06
1.307219621893312581e-06
1.417671374381513932e-06
1.528983415513239468e-06
1.640542921919605413e-06
1.751708980922387181e-06
1.861812590533899099e-06
1.970156659457038873e-06
2.076016007085296904e-06
2.178637363502650416e-06
2.277239369483746408e-06
2.371012576493754273e-06
2.459119446688436949e-06
2.540694352914157270e-06
2.614843578707766586e-06
2.680645318296754680e-06
2.737149676599185824e-06
2.783378669223664895e-06
2.818326222469416572e-06
2.840958173326174375e-06
2.850212269474286122e-06
2.844998169284674962e-06
2.824197441818834299e-06
2.786663566828813810e-06
2.731221934757252903e-06
2.656670151997248891e-06
2.568906796922067113e-06
2.475092047383404253e-06
2.376139102291120743e-06
2.272928108738186862e-06
2.166306162000510789e-06
2.057087305537053799e-06
1.946052530989798079e-06
1.833949778183719193e-06
1.721493935126912295e-06
1.609366838010398582e-06
1.498217271208256158e-06
1.388660967277586152e-06
1.281280606958482443e-06
1.176625819174154681e-06
1.075213181030743434e-06
9.775262178174434204e-07
8.840154030064734472e-07
7.950981582530499360e-07
7.111588533954908981e-07
6.325488064550583853e-07
5.595862836360641581e-07
4.925564993258451215e-07
4.317116160947442663e-07
3.772707446961792794e-07
3.294199440665370880e-07
2.883122213252496689e-07
2.540675317747686375e-07
2.267727789005660951e-07
2.064818143711558044e-07
1.932154380380550734e-07
1.869613979358105895e-07
1.876743902819916433e-07
1.952760594771981760e-07
2.096549981050446847e-07
2.306667469321682704e-07
2.581337949082400718e-07
2.918455791659453611e-07
3.315584850210072600e-07
3.769958459721418476e-07
4.278479437011166055e-07
4.837720080727131479e-07
5.443922171347386575e-07
6.092996971180407075e-07
6.780525224364327235e-07
7.501757156868134148e-07
8.251612476490808005e-07
9.024680372861614324e-07
9.815219517440171710e-07
1.061715806351580176e-06
1.142409364620864926e-06
1.222929338246887751e-06
1.302569387107689489e-06
1.380590119264353277e-06
1.456219090960930219e-06
1.528650806624548870e-06
1.597046718865340906e-06
1.660535228476471405e-06
1.718211684434131437e-06
1.769138383897507782e-06
1.812344572208825282e-06
1.846826442893344724e-06
1.871547137659353307e-06
1.885436746398135848e-06
1.887392307184013533e-06
1.876277806274342430e-06
1.850924178109485542e-06
1.810129305312840757e-06
1.754135364096799588e-06
1.691989551293144932e-06
1.625977487142723935e-06
1.556716881257483187e-06
1.484802696912166175e-06
1.410807151044290618e-06
1.335279714254234661e-06
1.258747110805109598e-06
1.181713318622843738e-06
1.104659569296161647e-06
1.028044348076562973e-06
9.523033938784083153e-07
8.778496992787898393e-07
8.050735105176171448e-07
7.343423274975963015e-07
6.660009037842113207e-07
6.003712466057995409e-07
5.377526168534367491e-07
4.784215290810142607e-07
4.226317515052202846e-07
3.706143060055231949e-07
3.225774681242352695e-07
2.787067670664161287e-07
2.391649856999396505e-07
2.040921605554749127e-07
1.736055818264804753e-07
1.477997933692344501e-07
1.267465927027866433e-07
1.104950310089909547e-07
9.907141313249881307e-08
9.247929758075599976e-08
9.069949652401069557e-08
9.369007579529844588e-08
1.013863548904574073e-07
1.137009069681194536e-07
1.305235588497182231e-07
1.517213910194702713e-07
1.771387376243996356e-07
2.065971864743249178e-07
2.398955790418605546e-07
2.768100104624284641e-07
3.170938295342118831e-07
3.604776387182252466e-07
4.066692941382690838e-07
4.553539055809395471e-07
5.061938364956390000e-07
5.588287039945294301e-07
6.128753788526108000e-07
6.679279855076619664e-07
7.235579020602616444e-07
7.793137602737977248e-07
8.347214455743913587e-07
8.892840970510785405e-07
9.424821074555800318e-07
9.937731232024327586e-07
1.042592044369046667e-06
1.088351024695518060e-06
1.130439471584846964e-06
1.168224046102746871e-06
1.201048662977750395e-06
1.228234490601217967e-06
1.249079951027256084e-06
1.262860719972823833e-06
1.268829726817632088e-06
1.266217154604196666e-06
1.254230440037834933e-06
1.232054273486681904e-06
1.198850598981621841e-06
1.156772016700261204e-06
1.109513015723234654e-06
1.057699866411278322e-06
1.001932165982999938e-06
9.427894648974406206e-07
8.808312668542907689e-07
8.165970287938028149e-07
7.506061608966739115e-07
6.833580265843043824e-07
6.153319425184987202e-07
5.469871786017313423e-07
4.787629579770325596e-07
4.110784570278717914e-07
3.443328053784276635e-07
2.789050858932818054e-07
2.151543346776854543e-07
1.534195410774411876e-07
9.401964767880233811e-08
3.725355030871503384e-08
-1.659990196545168828e-08
-6.728190683567485387e-08
-1.145537087533844891e-07
-1.581965989295339245e-07
-1.980119153344185297e-07
-2.338210426978728605e-07
-2.654654125091084523e-07
-2.928065030167877229e-07
-3.157258392290667489e-07
-3.341249929134874795e-07
-3.479255825970838284e-07
-3.570692735663016285e-07
-3.615177778670420427e-07
-3.612528543046552109e-07
-3.562763084439372856e-07
-3.466099926091160324e-07
-3.322958058838734878e-07
-3.133956941113499828e-07
-2.899916498940924741e-07
-2.621857125941445410e-07
-2.300999683329311890e-07
-1.938765499913753170e-07
-1.536776372098477423e-07
-1.096854563880971083e-07
-6.210228068541230359e-08
-1.115043002042404423e-08
4.292772892871957878e-08
9.986978272440498011e-08
1.593932711696816174e-07
2.211956873080210104e-07
2.849544774235857798e-07
3.503270410409958660e-07
4.169507309254064565e-07
4.844428530826584398e-07
5.524006667589906259e-07
6.204013844413456316e-07
6.880021718571159815e-07
7.547401479742385531e-07
8.201323850013296780e-07
8.836759083873999036e-07
9.448476968221704659e-07
1.003104682235813356e-06
1.057883749799044601e-06
1.108601737923241470e-06
1.154655438260218963e-06
1.195421595702449620e-06
1.230256908382879922e-06
1.258498027675035326e-06
1.279461558193031699e-06
1.292444057791499506e-06
1.296722037565640567e-06
1.291551961851196499e-06
1.276170248224505048e-06
1.249793267502406914e-06
1.211617343742347817e-06
1.162216890221863692e-06
1.104044717577381745e-06
1.038058286741086432e-06
9.651620484926803790e-07
8.862322906038738334e-07
8.021171378380561211e-07
7.136365519506002601e-07
6.215823316887397178e-07
5.267181127914010157e-07
4.297793679895727181e-07
3.314734070058768340e-07
2.324793765549508283e-07
1.334482603432846742e-07
3.500287906905038755e-08
-6.226210957750653762e-08
-1.577802109145107630e-07
-2.510130932680710707e-07
-3.414505879724478636e-07
-4.286106893702098670e-07
-5.120395548118673632e-07
-5.913115046562785553e-07
-6.660290222703037660e-07
-7.358227540289657392e-07
-8.003515093155523419e-07
-8.593022605213503847e-07
-9.123901430459334010e-07
-9.593584552969240542e-07
-9.999786586901080638e-07
-1.034050377649486298e-06
-1.061401399607129084e-06
-1.081887675003318085e-06
-1.095393317286442540e-06
-1.101830602913053051e-06
-1.101139971347858617e-06
-1.093290025063715197e-06
-1.078277529541612587e-06
-1.056127413270704908e-06
-1.026892767748311453e-06
-9.906548474798472351e-07
-9.475230699789542715e-07
-8.976350157673287935e-07
-8.411564283748923445e-07
-7.782812143397307950e-07
-7.092314432079664397e-07
-6.342573475340260840e-07
-5.536373228803189595e-07
-4.676779278175238684e-07
-3.767138839244974918e-07
-2.811080757880738548e-07
-1.812515510034490915e-07
-7.756352017376470442e-08
2.950864308954832823e-08
1.394894021668750081e-07
2.518750574306545448e-07
3.661337462449190406e-07
4.817054429658145213e-07
5.980019589411349626e-07
7.144069425105247310e-07
8.302758790056858945e-07
9.449360907498995440e-07
1.057686737058558047e-06
1.167798814238710191e-06
1.274515155589271988e-06
1.377050431401169403e-06
1.474591148956967772e-06
1.566295652531276475e-06
1.651294123390430876e-06
1.728688579792584012e-06
1.797552876987911152e-06
1.856932707218244939e-06
1.905845599717440883e-06
1.943280920711071371e-06
1.968199873416596133e-06
1.979535498043376640e-06
1.976192671792566205e-06
1.957048108857196162e-06
1.920950360422126322e-06
1.866719814664122472e-06
1.793452489650237532e-06
1.705955237644499949e-06
1.607321252671558490e-06
1.498887709277599323e-06
1.381948673268008120e-06
1.257755101707144527e-06
1.127514842918817776e-06
9.923926364857265844e-07
8.535101132499663153e-07
7.119457953128180675e-07
5.687350960344973171e-07
4.248703200347191012e-07
2.813006631920489784e-07
1.389322126444764704e-07
-1.372053210836718897e-09
-1.387922647177902724e-07
-2.725516609607917238e-07
-4.019165897653805094e-07
-5.261965076976886195e-07
-6.447439800646834855e-07
-7.569546809143572912e-07
-8.622673930352615290e-07
-9.601640079570203010e-07
-1.050169525949898333e-06
-1.131852056024999179e-06
-1.204822815934391007e-06
-1.268736132170787692e-06
-1.323289439967879154e-06
-1.368223283300072171e-06
-1.403321314882613622e-06
-1.428410296171634530e-06
-1.443360097364020042e-06
-1.448083697397520395e-06
-1.442537183950686113e-06
-1.426719753442907821e-06
-1.400673711034379396e-06
-1.364484470626157263e-06
-1.318280554860051123e-06
-1.262233595118757790e-06
-1.196558331525816292e-06
-1.121512612945468963e-06
-1.037397396982954513e-06
-9.445567499841416889e-07
-8.433778470358680841e-07
-7.342909719658181690e-07
-6.177695173422988259e-07
-4.943299844747166522e-07
-3.645319834129998607e-07
-2.289782329481441918e-07
-8.831456061195139261e-08
5.677009732317597721e-08
2.055436958437047260e-07
3.572310811955952935e-07
5.110139908837374153e-07
6.660310536722002090e-07
8.213777895844676497e-07
9.761066099029019744e-07
1.129226817169340417e-06
1.279704605184550142e-06
1.426463059008485320e-06
1.568382154960531919e-06
1.704298760618912452e-06
1.833006634821345395e-06
1.953256427664494400e-06
2.063755680504225371e-06
2.163168825955744742e-06
2.250117187893225513e-06
2.323178981450218695e-06
2.380889313019271723e-06
2.421740180252181716e-06
2.444180472059985316e-06
2.446615968612795633e-06
2.427409341339952591e-06
2.384880152929975923e-06
2.317304857330566011e-06
2.223723657863119943e-06
2.116737405482249365e-06
2.002145012288267841e-06
1.881115052262422503e-06
1.754773547350363729e-06
1.624203967461911990e-06
1.490447230471566925e-06
1.354501702217916741e-06
1.217323196504165495e-06
1.079824975097907570e-06
9.428777477308902938e-07
8.073096720995609099e-07
6.739063538644446454e-07
5.434108466506885050e-07
4.165236520478169021e-07
2.939027196095317590e-07
1.761634468542033629e-07
6.387867926431513502e-08
-4.242128971305504206e-08
-1.422487186664565359e-07
-2.351584182202205473e-07
-3.207477510340704755e-07
-3.986566318035441639e-07
-4.685675272596432283e-07
-5.302054561690007698e-07
-5.833379893339622661e-07
-6.277752495923581432e-07
-6.633699118177400979e-07
-6.900172029191943265e-07
-7.076549018414346991e-07
-7.162633395648222405e-07
-7.158653991052965215e-07
-7.065265155144163158e-07
-6.883546758793540943e-07
-6.615004193229167779e-07
-6.261568370034656924e-07
-5.825595721150533646e-07
-5.309868198872528448e-07
-4.717593275853186438e-07
-4.052403945101384511e-07
-3.318358719980933750e-07
-2.519941634213383107e-07
-1.662062241874605853e-07
-7.500556173980521917e-08
2.103176444267330515e-08
1.212871428455588502e-07
2.250994099186140580e-07
3.317648500762081019e-07
4.405371956969291686e-07
5.506276271237496301e-07
6.612047726642170493e-07
7.713947085900192284e-07
8.802809591374659594e-07
9.869044965070881655e-07
1.090263740863796296e-06
1.189314560337078745e-06
1.282970271020565838e-06
1.370101636972497186e-06
1.449536870215343062e-06
1.520061630735985026e-06
1.580419026485799574e-06
1.629309613380405509e-06
1.665391395299935628e-06
1.687279824088831735e-06
1.693547799555935282e-06
1.682725669474495833e-06
1.653301229582160900e-06
1.603719723580893995e-06
1.535054066013460151e-06
1.459946907614639503e-06
1.380874867074971498e-06
1.298545607630396109e-06
1.213639598770863488e-06
1.126810116240657109e-06
1.038683242038257820e-06
9.498578644161896824e-07
8.609056778813705373e-07
7.723711831947095582e-07
6.847716873714608877e-07
5.985973036810713836e-07
5.143109516470329171e-07
4.323483570472251037e-07
3.531180519135318088e-07
2.770013745321712794e-07
2.043524694435474890e-07
1.354982874421349416e-07
7.073858557676200439e-08
1.034592715029962259e-08
-4.543431828007800572e-08
-9.638397490301180262e-08
-1.423120606530361609e-07
-1.830547872103820087e-07
-2.184755600011851801e-07
-2.484649781973172198e-07
-2.729408347164686041e-07
-2.918481162221762700e-07
-3.051590031237350997e-07
-3.128728695762830477e-07
-3.150162834807410013e-07
-3.116430064838487796e-07
-3.028339939781441695e-07
-2.886973951019879130e-07
-2.693685527395192382e-07
-2.450100035207085868e-07
-2.158114778213430029e-07
-1.819898997629653587e-07
-1.437893872129971737e-07
-1.014812517845842434e-07
-5.536399883674338755e-08
-5.763327474308663757e-09
4.696786945217091204e-08
1.024495053462147367e-07
1.602742998656689649e-07
2.200077789224644696e-07
2.811882746827369089e-07
3.433269255669112176e-07
4.059076762494676143e-07
4.683872776592173106e-07
5.301952869790655537e-07
5.907340676461075529e-07
6.493787893517346763e-07
7.054774280414016227e-07
7.583507659148790490e-07
8.072923914260380005e-07
8.515686992829569547e-07
8.904188904479644902e-07
9.230549721375148795e-07
9.486617578223109078e-07
9.663968672272038182e-07
9.753907263312631913e-07
9.747465673677484638e-07
9.635404288241176107e-07
9.408211554419955933e-07
9.056716718486898589e-07
8.642885394470185274e-07
8.215333801904967078e-07
7.777196742984694104e-07
7.331479090881146759e-07
6.881055789746162646e-07
6.428671854710897529e-07
5.976942371885046061e-07
5.528352498358638551e-07
5.085257462199995385e-07
4.649882562457512671e-07
4.224323169158879265e-07
3.810544723310371620e-07
3.410382736898527728e-07
3.025542792888273594e-07
2.657600545224532069e-07
2.308001718831496516e-07
1.978062109612083418e-07
1.668967584449283394e-07
1.381774081204678893e-07
1.117407608719694623e-07
8.766642468150078094e-08
6.602101462902072593e-08
4.685815289247187479e-08
3.021846874767991657e-08
1.612959856843549649e-08
4.606185826455146465e-09
-4.350118908632690891e-09
-1.075065796924626354e-08
-1.461976658988957943e-08
-1.599477290712328969e-08
-1.492599795958395872e-08
-1.147675568797294677e-08
-5.723352935068268493e-09
2.244910554296053527e-09
1.232574213320669536e-08
2.440385625267653744e-08
3.835097446167028733e-08
5.402582540705514001e-08
7.127414483366271722e-08
8.992867558422839867e-08
1.098091675994162037e-07
1.307223779178559547e-07
1.524620706760601622e-07
1.748090171085232336e-07
1.975309955476325345e-07
2.203827914237052346e-07
2.431061972650291776e-07
2.654300126977714009e-07
2.870700444460809448e-07
3.077291063320008664e-07
3.270970192755030745e-07
3.448506112945296219e-07
3.606537175049051436e-07
3.741571801204297128e-07
3.849988484527989021e-07
3.928035789116565112e-07
3.971832350045772031e-07
3.977366873370633274e-07
3.940498136125455554e-07
3.856954986323892335e-07
