4.000000000000000000e+01
4.000000000000000000e+01
3.999537678316879408e+01
3.999078690571717942e+01
3.998623002527295256e+01
3.998170580543943231e+01
3.997721393492699349e+01
3.997275410722101441e+01
3.996832602007348356e+01
3.996392937550305646e+01
3.995956387979498459e+01
3.995522924350118643e+01
3.995092518144019778e+01
3.994665141269718589e+01
3.994240766062396375e+01
3.993819365283896161e+01
3.993400912122726254e+01
3.992985380194055978e+01
3.992572743539719937e+01
3.992162976389489160e+01
3.991756053262191983e+01
3.991351950911572999e+01
3.990950646485248399e+01
3.990552117332044446e+01
3.990156341001998896e+01
3.989763295246360997e+01
3.989372958017591486e+01
3.988985307469363306e+01
3.988600321956559469e+01
3.988217980035275190e+01
3.987838260462816464e+01
3.987461142197701491e+01
3.987086604399659961e+01
3.986714626429631636e+01
3.986345187849769900e+01
3.985978268423436788e+01
3.985613848115207958e+01
3.985251907090869850e+01
3.984892425717419684e+01
3.984535384566319749e+01
3.984180764987288370e+01
3.983828549437787103e+01
3.983478720534141360e+01
3.983131261003082102e+01
3.982786153681749397e+01
3.982443381517689573e+01
3.982102927568855932e+01
3.981764775003610879e+01
3.981428907100721659e+01
3.981095307249364623e+01
3.980763958949123094e+01
3.980434845809986655e+01
3.980107951552353285e+01
3.979783260007028645e+01
3.979460755115223947e+01
3.979140420928559507e+01
3.978822241609061194e+01
3.978506201429163980e+01
3.978192284771709097e+01
3.977880476129945464e+01
3.977570760107528258e+01
3.977263121418521763e+01
3.976957544887395812e+01
3.976654015449028634e+01
3.976352518305970563e+01
3.976053039784837750e+01
3.975755566207375580e+01
3.975460083903143271e+01
3.975166579277690460e+01
3.974875038812559325e+01
3.974585449065282461e+01
3.974297796669386429e+01
3.974012068334387493e+01
3.973728250845795174e+01
3.973446331065109405e+01
3.973166295929821956e+01
3.972888132453418564e+01
3.972611827725373246e+01
3.972337368911154698e+01
3.972064743252221319e+01
3.971793938066024054e+01
3.971524940746005683e+01
3.971257738761601530e+01
3.970992319658235914e+01
3.970728671057328540e+01
3.970466780656288108e+01
3.970206636228515862e+01
3.969948225623404880e+01
3.969691536766340079e+01
3.969436557658698206e+01
3.969183276377847136e+01
3.968931681077147289e+01
3.968681759985950208e+01
3.968433501430724419e+01
3.968186894360612627e+01
3.967941927929828694e+01
3.967698591249855866e+01
3.967456873490651503e+01
3.967216763880650632e+01
3.966978251706763814e+01
3.966741326314377858e+01
3.966505977107355818e+01
3.966272193548036284e+01
3.966039965157234803e+01
3.965809281514243168e+01
3.965580132256827994e+01
3.965352507081233568e+01
3.965126395742179000e+01
3.964901788052861065e+01
3.964678673884949944e+01
3.964457043168595618e+01
3.964236885892421469e+01
3.964018192103527838e+01
3.963800951907491310e+01
3.963585155468364718e+01
3.963370793008677140e+01
3.963157854809432479e+01
3.962946331210112305e+01
3.962736212608673725e+01
3.962527489461550800e+01
3.962320152283651709e+01
3.962114191648362294e+01
3.961909598187544645e+01
3.961706362591537101e+01
3.961504475609152109e+01
3.961303928047681211e+01
3.961104710772890058e+01
3.960906814709020551e+01
3.960710230838791546e+01
3.960514950204009921e+01
3.960320964094019303e+01
3.960128264066475623e+01
3.959936841688849540e+01
3.959746688573654438e+01
3.959557796378448558e+01
3.959370156805831442e+01
3.959183761603448204e+01
3.958998602563985969e+01
3.958814671525175299e+01
3.958631960369790193e+01
3.958450461025648792e+01
3.958270165465611257e+01
3.958091065707582601e+01
3.957913153814510565e+01
3.957736421894384904e+01
3.957560862100241650e+01
3.957386466630156718e+01
3.957213227727253013e+01
3.957041137679693321e+01
3.956870188820687417e+01
3.956700373528484249e+01
3.956531684226380463e+01
3.956364113382712588e+01
3.956197653510862722e+01
3.956032297169254974e+01
3.955868036961358314e+01
3.955704865535683012e+01
3.955542775585784199e+01
3.955381759850260437e+01
3.955221811112753016e+01
3.955062922201946662e+01
3.954905085991569536e+01
3.954748295400393943e+01
3.954592543392234205e+01
3.954437822975948791e+01
3.954284127205439603e+01
3.954131449179651270e+01
3.953979782042572566e+01
3.953829118983235702e+01
3.953679453235714902e+01
3.953530778079129959e+01
3.953383086837641969e+01
3.953236372880456173e+01
3.953090629621821250e+01
3.952945850521029314e+01
3.952802028914460664e+01
3.952659158206130030e+01
3.952517232238861311e+01
3.952376244893437018e+01
3.952236190081989520e+01
3.952097061748008144e+01
3.951958853866330657e+01
3.951821560443151071e+01
3.951685175516013970e+01
3.951549693153818055e+01
3.951415107456813303e+01
3.951281412556603811e+01
3.951148602616146377e+01
3.951016671829749072e+01
3.950885614423074799e+01
3.950755424653137027e+01
3.950626096808304766e+01
3.950497625208296881e+01
3.950370004204186358e+01
3.950243228178399590e+01
3.950117291544713538e+01
3.949992188748261412e+01
3.949867914265525570e+01
3.949744462604342488e+01
3.949621828303902760e+01
3.949500005934748259e+01
3.949378990098773556e+01
3.949258775429226631e+01
3.949139356590708161e+01
3.949020728279170100e+01
3.948902885221919945e+01
3.948785822177615756e+01
3.948669533936269005e+01
3.948554015319243859e+01
3.948439261179257898e+01
3.948325266400379974e+01
3.948212025898033062e+01
3.948099534618992124e+01
3.947987787541385529e+01
3.947876779674694347e+01
3.947766506059751634e+01
3.947656961768743855e+01
3.947548141905209462e+01
3.947440041604041028e+01
3.947332656031482401e+01
3.947225980385131550e+01
3.947120009893938430e+01
3.947014739818205697e+01
3.946910165449589414e+01
3.946806282111096920e+01
3.946703085157089674e+01
3.946600569973281836e+01
3.946498731976740260e+01
3.946397566615883790e+01
3.946297069370483968e+01
3.946197235751667165e+01
3.946098061301909610e+01
3.945999541595043070e+01
3.945901672232321289e+01
3.945804448027247702e+01
3.945707864219946970e+01
3.945611916780090667e+01
3.945516601695680237e+01
3.945421914973042732e+01
3.945327852636835786e+01
3.945234410730044061e+01
3.945141585313982091e+01
3.945049372468290727e+01
3.944957768290940692e+01
3.944866768898230447e+01
3.944776370424787615e+01
3.944686569023567557e+01
3.944597360865853375e+01
3.944508742141257329e+01
3.944420709057720842e+01
3.944333257841511653e+01
3.944246384737227373e+01
3.944160086007794064e+01
3.944074357934464814e+01
3.943989196816823295e+01
3.943904598972778786e+01
3.943820560738571146e+01
3.943737078468767976e+01
3.943654148536264614e+01
3.943571767332284850e+01
3.943489931266382342e+01
3.943408636766437780e+01
3.943327880278659592e+01
3.943247658267586786e+01
3.943167967216083980e+01
3.943088803625346372e+01
3.943010164014896191e+01
3.942932044922584822e+01
3.942854442904592105e+01
3.942777354535425616e+01
3.942700776407922092e+01
3.942624705133244589e+01
3.942549137340888166e+01
3.942474069678672066e+01
3.942399498812747538e+01
3.942325421427592147e+01
3.942251834226011908e+01
3.942178733929141998e+01
3.942106117276446042e+01
3.942033981025714695e+01
3.941962321953068482e+01
3.941891136852954958e+01
3.941820422538152258e+01
3.941750175839763415e+01
3.941680393607222754e+01
3.941611072708292340e+01
3.941542210029061977e+01
3.941473802473949917e+01
3.941405846965703574e+01
3.941338340445397392e+01
3.941271279872435684e+01
3.941204662224549793e+01
3.941138484497800221e+01
3.941072743706575210e+01
3.941007436883592874e+01
3.940942561079898354e+01
3.940878113364864532e+01
3.940814090826194160e+01
3.940750490569917730e+01
3.940687309720394182e+01
3.940624545420310909e+01
3.940562194830683040e+01
3.940500255130854868e+01
3.940438723518498421e+01
3.940377597209615601e+01
3.940316873438533918e+01
3.940256549457911461e+01
3.940196622538734061e+01
3.940137089970315998e+01
3.940077949060300000e+01
3.940019197134656537e+01
3.939960831537685237e+01
3.939902849632013471e+01
3.939845248964985558e+01
3.939788027294022754e+01
3.939731182237329676e+01
3.939674711422556186e+01
3.939618612488141025e+01
3.939562883083310396e+01
3.939507520868077961e+01
3.939452523513245552e+01
3.939397888700402461e+01
3.939343614121926862e+01
3.939289697480985097e+01
3.939236136491528839e+01
3.939182928878300061e+01
3.939130072376828906e+01
3.939077564733432268e+01
3.939025403705213790e+01
3.938973587060068127e+01
3.938922112576675261e+01
3.938870978044504056e+01
3.938820181263811548e+01
3.938769720045642231e+01
3.938719592211828058e+01
3.938669795594989154e+01
3.938620328038534524e+01
3.938571187396660633e+01
3.938522371534349986e+01
3.938473878327376099e+01
3.938425705662297815e+01
3.938377851436463573e+01
3.938330313558009266e+01
3.938283089945856830e+01
3.938236178529719922e+01
3.938189577250096107e+01
3.938143284058273252e+01
3.938097296916326684e+01
3.938051613797119899e+01
3.938006232684302432e+01
3.937961151572314833e+01
3.937916368466382977e+01
3.937871881382520911e+01
3.937827688347532273e+01
3.937783787399006741e+01
3.937740176585323582e+01
3.937696853965648103e+01
3.937653817609935203e+01
3.937611065598926530e+01
3.937568596024151901e+01
3.937526406987929306e+01
3.937484496603364903e+01
3.937442862994352311e+01
3.937401504295571897e+01
3.937360418652495042e+01
3.937319604221377034e+01
3.937279059169264883e+01
3.937238781673990928e+01
3.937198769924176389e+01
3.937159022119229945e+01
3.937119536469349157e+01
3.937080311195517623e+01
3.937041344529509246e+01
3.937002634713883964e+01
3.936964180001990599e+01
3.936925978657964720e+01
3.936888028956731489e+01
3.936850329184002106e+01
3.936812877636278074e+01
3.936775672620846223e+01
3.936738712455782263e+01
3.936701995469950788e+01
3.936665520003002428e+01
3.936629284405378115e+01
3.936593287038304112e+01
3.936557526273796270e+01
3.936522000494658613e+01
3.936486708094480491e+01
3.936451647502934037e+01
3.936416817294524151e+01
3.936382216039984883e+01
3.936347842309984202e+01
3.936313694681369668e+01
3.936279771737168431e+01
3.936246072066585810e+01
3.936212594265005293e+01
3.936179336933989248e+01
3.936146298681280342e+01
3.936113478120796572e+01
3.936080873872638364e+01
3.936048484563082184e+01
3.936016308824584087e+01
3.935984345295779008e+01
3.935952592621480051e+01
3.935921049452679910e+01
3.935889714446548027e+01
3.935858586266434855e+01
3.935827663581869018e+01
3.935796945068555885e+01
3.935766429408381839e+01
3.935736115289410719e+01
3.935706001405885957e+01
3.935676086458228440e+01
3.935646369153038648e+01
3.935616848203095230e+01
3.935587522327356425e+01
3.935558390250957927e+01
3.935529450705214316e+01
3.935500702427620467e+01
3.935472144161847297e+01
3.935443774657746729e+01
3.935415592671348151e+01
3.935387596964859824e+01
3.935359786306668894e+01
3.935332159471341384e+01
3.935304715239620776e+01
3.935277452398431564e+01
3.935250369740874277e+01
3.935223466066230458e+01
3.935196740179958397e+01
3.935170190893695974e+01
3.935143817025259949e+01
3.935117617398645962e+01
3.935091590844027110e+01
3.935065736197756081e+01
3.935040052302364444e+01
3.935014538006562645e+01
3.934989192165237881e+01
3.934964013639458358e+01
3.934939001296469741e+01
3.934914154009697285e+01
3.934889470658743704e+01
3.934864950129391303e+01
3.934840591313600555e+01
3.934816393109510813e+01
3.934792354421441019e+01
3.934768474159886864e+01
3.934744751241523630e+01
3.934721184589206899e+01
3.934697773131968290e+01
3.934674515805019723e+01
3.934651411549750577e+01
3.934628459313731241e+01
3.934605658050707433e+01
3.934583006720607301e+01
3.934560504289534322e+01
3.934538149729772272e+01
3.934515942019784518e+01
3.934493880144210465e+01
3.934471963093870528e+01
3.934450189865763292e+01
3.934428559463065511e+01
3.934407070895132108e+01
3.934385723208330177e+01
3.934364515871075696e+01
3.934343448120359454e+01
3.934322519069163349e+01
3.934301727834594686e+01
3.934281073537886186e+01
3.934260555304398110e+01
3.934240172263613999e+01
3.934219923549145648e+01
3.934199808298729550e+01
3.934179825654228324e+01
3.934159974761629996e+01
3.934140254771048717e+01
3.934120664836725467e+01
3.934101204117025219e+01
3.934081871774440486e+01
3.934062666975589195e+01
3.934043588891214682e+01
3.934024636696185695e+01
3.934005809569498524e+01
3.933987106694274161e+01
3.933968527257759007e+01
3.933950070451327008e+01
3.933931735470476099e+01
3.933913521514831757e+01
3.933895427788143451e+01
3.933877453498287480e+01
3.933859597857266976e+01
3.933841860081209774e+01
3.933824239390369826e+01
3.933806735009126498e+01
3.933789346165985279e+01
3.933772072093579197e+01
3.933754912028663853e+01
3.933737865212123097e+01
3.933720930888966905e+01
3.933704108308329239e+01
3.933687396723471608e+01
3.933670795391780217e+01
3.933654303574767397e+01
3.933637920538072308e+01
3.933621645551459522e+01
3.933605477888818314e+01
3.933589416828164786e+01
3.933573461651641168e+01
3.933557611645515095e+01
3.933541866100180329e+01
3.933526224310156749e+01
3.933510685574088228e+01
3.933495249194747601e+01
3.933479914479030981e+01
3.933464680737962027e+01
3.933449547286688386e+01
3.933434513444485958e+01
3.933419578534754635e+01
3.933404741885021139e+01
3.933390002826936893e+01
3.933375360696280865e+01
3.933360814832956720e+01
3.933346364580994958e+01
3.933332009295791920e+01
3.933317748442163975e+01
3.933303581446617869e+01
3.933289507709692856e+01
3.933275526634842123e+01
3.933261637628435636e+01
3.933247840099758719e+01
3.933234133461011339e+01
3.933220517127310245e+01
3.933206990516686830e+01
3.933193553050088553e+01
3.933180204151378234e+01
3.933166943247333336e+01
3.933153769767648811e+01
3.933140683144933547e+01
3.933127682814712500e+01
3.933114768215425983e+01
3.933101938788429663e+01
3.933089193977995990e+01
3.933076533231312055e+01
3.933063955998479599e+01
3.933051461732517140e+01
3.933039049889357841e+01
3.933026719927852355e+01
3.933014471309763849e+01
3.933002303499773689e+01
3.932990215965477176e+01
3.932978208177386392e+01
3.932966279608926641e+01
3.932954429736442137e+01
3.932942658039189610e+01
3.932930963999343987e+01
3.932919347101992713e+01
3.932907806835141429e+01
3.932896342689709712e+01
3.932884954159533208e+01
3.932873640741363630e+01
3.932862401934867336e+01
3.932851237242626752e+01
3.932840146170139661e+01
3.932829128225819915e+01
3.932818182920995298e+01
3.932807309769911086e+01
3.932796508289727200e+01
3.932785778000518917e+01
3.932775118425276872e+01
3.932764529089908478e+01
3.932754009523235084e+01
3.932743559256994814e+01
3.932733177825841153e+01
3.932722864767342230e+01
3.932712619621982242e+01
3.932702441933161452e+01
3.932692331247195483e+01
3.932682287113313890e+01
3.932672309083664430e+01
3.932662396713308794e+01
3.932652549560224031e+01
3.932642767185303256e+01
3.932633049152354943e+01
3.932623395026106294e+01
3.932613804356378751e+01
3.932604276732184445e+01
3.932594811755595998e+01
3.932585409030529178e+01
3.932576068162739347e+01
3.932566788759822174e+01
3.932557570431212923e+01
3.932548412788187875e+01
3.932539315443865746e+01
3.932530278013202008e+01
3.932521300112996698e+01
3.932512381361886611e+01
3.932503521380350975e+01
3.932494719790709325e+01
3.932485976217121504e+01
3.932477290285588367e+01
3.932468661623949657e+01
3.932460089861886843e+01
3.932451574630922408e+01
3.932443115564417724e+01
3.932434712297575885e+01
3.932426364467440294e+01
3.932418071712893237e+01
3.932409833674660149e+01
3.932401649995305348e+01
3.932393520319232749e+01
3.932385444292689414e+01
3.932377421563759867e+01
3.932369451782371073e+01
3.932361534600290298e+01
3.932353669671124408e+01
3.932345856650321281e+01
3.932338095195169814e+01
3.932330384964797076e+01
3.932322725620174708e+01
3.932315116824110390e+01
3.932307558241254952e+01
3.932300049538099529e+01
3.932292590382974140e+01
3.932285180446051243e+01
3.932277819399342889e+01
3.932270506916701436e+01
3.932263242673819548e+01
3.932256026348230904e+01
3.932248857619309490e+01
3.932241736168269597e+01
3.932234661678165821e+01
3.932227633833893776e+01
3.932220652322189380e+01
3.932213716831628858e+01
3.932206827052629450e+01
3.932199982677446570e+01
3.932193183400180203e+01
3.932186428916766374e+01
3.932179718924984968e+01
3.932173053124455464e+01
3.932166431216636227e+01
3.932159852904828057e+01
3.932153317894170641e+01
3.932146825891646102e+01
3.932140376606074739e+01
3.932133969748119284e+01
3.932127605030282069e+01
3.932121282166905019e+01
3.932115000874172495e+01
3.932108760870107744e+01
3.932102561874575741e+01
3.932096403609279633e+01
3.932090285797766427e+01
3.932084208165420591e+01
3.932078170424875196e+01
3.932072172295789869e+01
3.932066213532968391e+01
3.932060293892655523e+01
3.932054413132114234e+01
3.932048571009633520e+01
3.932042767284522000e+01
3.932037001717109348e+01
3.932031274068750548e+01
3.932025584101818794e+01
3.932019931579712591e+01
3.932014316266849363e+01
3.932008737928671138e+01
3.932003196331640993e+01
3.931997691243243054e+01
3.931992222431984629e+01
3.931986789667394078e+01
3.931981392720022939e+01
3.931976031361443802e+01
3.931970705364251017e+01
3.931965414502062117e+01
3.931960158549515683e+01
3.931954937282272056e+01
3.931949750477014760e+01
3.931944597911447659e+01
3.931939479364297796e+01
3.931934394615313977e+01
3.931929343445266767e+01
3.931924325635949202e+01
3.931919340970176080e+01
3.931914389231782536e+01
3.931909470205629020e+01
3.931904583677595610e+01
3.931899729434584145e+01
3.931894907264519645e+01
3.931890116956348891e+01
3.931885358300039712e+01
3.931880631086583833e+01
3.931875935107992603e+01
3.931871270157301268e+01
3.931866636028566120e+01
3.931862032516865213e+01
3.931857459418299072e+01
3.931852916529990694e+01
3.931848403650084123e+01
3.931843920577745166e+01
3.931839467113163522e+01
3.931835043057547807e+01
3.931830648213131951e+01
3.931826282383169513e+01
3.931821945371936522e+01
3.931817636984732189e+01
3.931813357027875355e+01
3.931809105308709462e+01
3.931804881635599003e+01
3.931800685817928809e+01
3.931796517666108315e+01
3.931792376991567295e+01
3.931788263606757994e+01
3.931784177325153706e+01
3.931780117961251619e+01
3.931776085330569970e+01
3.931772079249648044e+01
3.931768099536048311e+01
3.931764146008354999e+01
3.931760218486174097e+01
3.931756316790133354e+01
3.931752440741882992e+01
3.931748590164094281e+01
3.931744764880463094e+01
3.931740964715703512e+01
3.931737189495554219e+01
3.931733439046774947e+01
3.931729713197147902e+01
3.931726011775477048e+01
3.931722334611588110e+01
3.931718681536328575e+01
3.931715052381568398e+01
3.931711446980200009e+01
3.931707865172820249e+01
3.931704306882681266e+01
3.931700771985870801e+01
3.931697260335337774e+01
3.931693771784669167e+01
3.931690306188092876e+01
3.931686863400474152e+01
3.931683443277320578e+01
3.931680045674776380e+01
3.931676670449627409e+01
3.931673317459298289e+01
3.931669986561853136e+01
3.931666677615994843e+01
3.931663390481067211e+01
3.931660125017052110e+01
3.931656881084571609e+01
3.931653658544887975e+01
3.931650457259901543e+01
3.931647277092153558e+01
3.931644117904822622e+01
3.931640979561729665e+01
3.931637861927333688e+01
3.931634764866731757e+01
3.931631688245663270e+01
3.931628631930504980e+01
3.931625595788273841e+01
3.931622579686627006e+01
3.931619583493859693e+01
3.931616607078907322e+01
3.931613650311345509e+01
3.931610713061387941e+01
3.931607795199889210e+01
3.931604896598342691e+01
3.931602017128881243e+01
3.931599156664276506e+01
3.931596315077941028e+01
3.931593492243926136e+01
3.931590688036923353e+01
3.931587902332262274e+01
3.931585135005912690e+01
3.931582385934484591e+01
3.931579654995226036e+01
3.931576942066025993e+01
3.931574247025412916e+01
3.931571569752552620e+01
3.931568910127253247e+01
3.931566268029960298e+01
3.931563643341760184e+01
3.931561035944378091e+01
3.931558445720178696e+01
3.931555872552166164e+01
3.931553316323984859e+01
3.931550776919917922e+01
3.931548254224887984e+01
3.931545748124457162e+01
3.931543258504827065e+01
3.931540785252839498e+01
3.931538328255975046e+01
3.931535887402354490e+01
3.931533462580736682e+01
3.931531053680520671e+01
3.931528660591746416e+01
3.931526283205091943e+01
3.931523921413139533e+01
3.931521575136736146e+01
3.931519244287588322e+01
3.931516928768223806e+01
3.931514628481610885e+01
3.931512343331162640e+01
3.931510073220732693e+01
3.931507818054619463e+01
3.931505577737562618e+01
3.931503352174745913e+01
3.931501141271794353e+01
3.931498944934777029e+01
3.931496763070205702e+01
3.931494595585034091e+01
3.931492442386659292e+01
3.931490303382921070e+01
3.931488178482101858e+01
3.931486067592927469e+01
3.931483970624565671e+01
3.931481887486626903e+01
3.931479818089164979e+01
3.931477762342677096e+01
3.931475720158100984e+01
3.931473691446819885e+01
3.931471676120658287e+01
3.931469674091883348e+01
3.931467685273205603e+01
3.931465709577778256e+01
3.931463746919197177e+01
3.931461797211500198e+01
3.931459860369169945e+01
3.931457936307129586e+01
3.931456024940746374e+01
3.931454126185830233e+01
3.931452239958633754e+01
3.931450366175852196e+01
3.931448504754623485e+01
3.931446655612528218e+01
3.931444818667590368e+01
3.931442993838276578e+01
3.931441181043495448e+01
3.931439380202598954e+01
3.931437591235382456e+01
3.931435814062083267e+01
3.931434048603380660e+01
3.931432294780398706e+01
3.931430552514703436e+01
3.931428821728302836e+01
3.931427102343648272e+01
3.931425394283634489e+01
3.931423697471598189e+01
3.931422011831318741e+01
3.931420337287018896e+01
3.931418673763364069e+01
3.931417021185461635e+01
3.931415379478863770e+01
3.931413748569562472e+01
3.931412128383995963e+01
3.931410518849041580e+01
3.931408919892022169e+01
3.931407331440702535e+01
3.931405753423289440e+01
3.931404185768433734e+01
3.931402628405228938e+01
3.931401081264730379e+01
3.931399544282686520e+01
3.931398017395868294e+01
3.931396500541315220e+01
3.931394993656337533e+01
3.931393496678512633e+01
3.931392009545686506e+01
3.931390532195975851e+01
3.931389064567764535e+01
3.931387606599707141e+01
3.931386158230724703e+01
3.931384719400008976e+01
3.931383290047021006e+01
3.931381870111488297e+01
3.931380459533410487e+01
3.931379058253053671e+01
3.931377666210953947e+01
3.931376283347916001e+01
3.931374909605013102e+01
3.931373544923588526e+01
3.931372189245253423e+01
3.931370842511887531e+01
3.931369504665641301e+01
3.931368175648931640e+01
3.931366855404446881e+01
3.931365543875142521e+01
3.931364241004243354e+01
3.931362946735242758e+01
3.931361661011904118e+01
3.931360383778258694e+01
3.931359114978607749e+01
3.931357854557519715e+01
3.931356602459833027e+01
3.931355358630655417e+01
3.931354123015363200e+01
3.931352895559600569e+01
3.931351676209282431e+01
3.931350464910590858e+01
3.931349261609977930e+01
3.931348066254164308e+01
3.931346878790139954e+01
3.931345699165163410e+01
3.931344527326761096e+01
3.931343363222730147e+01
3.931342206801135575e+01
3.931341058010310974e+01
3.931339916798860656e+01
3.931338783115655389e+01
3.931337656909835943e+01
3.931336538130813096e+01
3.931335426728264792e+01
3.931334322652138269e+01
3.931333225852650770e+01
3.931332136280287415e+01
3.931331053885801907e+01
3.931329978620217958e+01
3.931328910434827861e+01
3.931327849281191789e+01
3.931326795111140626e+01
3.931325747876772425e+01
3.931324707530455242e+01
3.931323674024825721e+01
3.931322647312789087e+01
3.931321627347519865e+01
3.931320614082461873e+01
3.931319607471326805e+01
3.931318607468095649e+01
3.931317614027018692e+01
3.931316627102615513e+01
3.931315646649672857e+01
3.931314672623248185e+01
3.931313704978666834e+01
3.931312743671377774e+01
3.931311788656153539e+01
3.931310839893742326e+01
3.931309897346643112e+01
3.931308960977479927e+01
3.931308030749004701e+01
3.931307106624095127e+01
3.931306188565753246e+01
3.931305276537108995e+01
3.931304370501417367e+01
3.931303470422059831e+01
3.931302576262543624e+01
3.931301687986501747e+01
3.931300805557693678e+01
3.931299928940005373e+01
3.931299058097447841e+01
3.931298192994158569e+01
3.931297333594400811e+01
3.931296479862564297e+01
3.931295631763164522e+01
3.931294789260842748e+01
3.931293952320366714e+01
3.931293120906630634e+01
3.931292294984653068e+01
3.931291474519579765e+01
3.931290659476683658e+01
3.931289849821360605e+01
3.931289045519135783e+01
3.931288246535658715e+01
3.931287452836704688e+01
3.931286664388175467e+01
3.931285881156099293e+01
3.931285103106629464e+01
3.931284330206047173e+01
3.931283562420756539e+01
3.931282799717290999e+01
3.931282042062307625e+01
3.931281289422590675e+01
3.931280541765050174e+01
3.931279799056721913e+01
3.931279061264768160e+01
3.931278328356477658e+01
3.931277600299263497e+01
3.931276877060665953e+01
3.931276158608351778e+01
3.931275444910112782e+01
3.931274735933867959e+01
3.931274031647659939e+01
3.931273332019660671e+01
3.931272637018165028e+01
3.931271946611596491e+01
3.931271260768502884e+01
3.931270579457558512e+01
3.931269902647564152e+01
3.931269230307445639e+01
3.931268562406255995e+01
3.931267898913174008e+01
3.931267239797502810e+01
3.931266585028674854e+01
3.931265934576244803e+01
3.931265288409896641e+01
3.931264646499438697e+01
3.931264008814805067e+01
3.931263375326057030e+01
3.931262746003380926e+01
3.931262120817088856e+01
3.931261499737621534e+01
3.931260882735541884e+01
3.931260269781540728e+01
3.931259660846436077e+01
3.931259055901170285e+01
3.931258454916812184e+01
3.931257857864556371e+01
3.931257264715724631e+01
3.931256675441762383e+01
3.931256090014244364e+01
3.931255508404868237e+01
3.931254930585460272e+01
3.931254356527970373e+01
3.931253786204476341e+01
3.931253219587181036e+01
3.931252656657333944e+01
3.931252097416383151e+01
3.931251541844000741e+01
3.931250989918270022e+01
3.931250441617328306e+01
3.931249896919371878e+01
3.931249355802648893e+01
3.931248818245466481e+01
3.931248284226186485e+01
3.931247753723225458e+01
3.931247226715056797e+01
3.931246703180210034e+01
3.931246183097268698e+01
3.931245666444874587e+01
3.931245153201723497e+01
3.931244643346566647e+01
3.931244136858212812e+01
3.931243633715524766e+01
3.931243133897422126e+01
3.931242637382879934e+01
3.931242144150928652e+01
3.931241654180654876e+01
3.931241167451200624e+01
3.931240683941764757e+01
3.931240203631600139e+01
3.931239726500017184e+01
3.931239252526381023e+01
3.931238781690112205e+01
3.931238313970687415e+01
3.931237849347640179e+01
3.931237387800558025e+01
3.931236929309085326e+01
3.931236473852922586e+01
3.931236021411824311e+01
3.931235571965602560e+01
3.931235125494124105e+01
3.931234681977312562e+01
3.931234241395145546e+01
3.931233803727658938e+01
3.931233368954941199e+01
3.931232937057139054e+01
3.931232508014454652e+01
3.931232081807144141e+01
3.931231658415522645e+01
3.931231237819957158e+01
3.931230820000873649e+01
3.931230404938752088e+01
3.931229992614129287e+01
3.931229583007596773e+01
3.931229176099802203e+01
3.931228771871449368e+01
3.931228370303297481e+01
3.931227971376161179e+01
3.931227575070911939e+01
3.931227181368475954e+01
3.931226790249834835e+01
3.931226401696028461e+01
3.931226015688148578e+01
3.931225632207346621e+01
3.931225251234826601e+01
3.931224872751850086e+01
3.931224496739734064e+01
3.931224123179850949e+01
3.931223752053629283e+01
3.931223383342553745e+01
3.931223017028844424e+01
3.931222653110759069e+01
3.931222291580046857e+01
3.931221932422353404e+01
3.931221575623366249e+01
3.931221221168812008e+01
3.931220869044457800e+01
3.931220519236113375e+01
3.931220171729626855e+01
3.931219826510888282e+01
3.931219483565828199e+01
3.931219142880416939e+01
3.931218804440666759e+01
3.931218468232630414e+01
3.931218134242399742e+01
3.931217802456109212e+01
3.931217472859932371e+01
3.931217145440083982e+01
3.931216820182820726e+01
3.931216497074436944e+01
3.931216176101271031e+01
3.931215857249699042e+01
3.931215540506140371e+01
3.931215225857052076e+01
3.931214913288935264e+01
3.931214602788328705e+01
3.931214294341813087e+01
3.931213987936010312e+01
3.931213683557581362e+01
3.931213381193229850e+01
3.931213080829697759e+01
3.931212782453769705e+01
3.931212486052270094e+01
3.931212191612063123e+01
3.931211899120055620e+01
3.931211608563193494e+01
3.931211319928463155e+01
3.931211033202893645e+01
3.931210748373551667e+01
3.931210465427547263e+01
3.931210184352029557e+01
3.931209905134188887e+01
3.931209627761256087e+01
3.931209352220502495e+01
3.931209078499239951e+01
3.931208806584821502e+01
3.931208536464640702e+01
3.931208268126131600e+01
3.931208001556768750e+01
3.931207736744067205e+01
3.931207473675583230e+01
3.931207212338913592e+01
3.931206952721694847e+01
3.931206694811605473e+01
3.931206438596363029e+01
3.931206184063728415e+01
3.931205931201500192e+01
3.931205679997518843e+01
3.931205430439665349e+01
3.931205182515861907e+01
3.931204936214070500e+01
3.931204691522295036e+01
3.931204448428577081e+01
3.931204206921002964e+01
3.931203966987696674e+01
3.931203728616824122e+01
3.931203491799020355e+01
3.931203256529136070e+01
3.931203022798371194e+01
3.931202790597802732e+01
3.931202559918524031e+01
3.931202330751649043e+01
3.931202103088306643e+01
3.931201876919646310e+01
3.931201652236833155e+01
3.931201429031052186e+01
3.931201207293506172e+01
3.931200987015414228e+01
3.931200768188016070e+01
3.931200550802567761e+01
3.931200334850343836e+01
3.931200120322635883e+01
3.931199907210755384e+01
3.931199695506030167e+01
3.931199485199806531e+01
3.931199276283449251e+01
3.931199068748341574e+01
3.931198862585882381e+01
3.931198657787491868e+01
3.931198454344605153e+01
3.931198252248677960e+01
3.931198051491181644e+01
3.931197852063607456e+01
3.931197653957464411e+01
3.931197457164277864e+01
3.931197261675593779e+01
3.931197067482973750e+01
3.931196874577999267e+01
3.931196682952267452e+01
3.931196492597396741e+01
3.931196303505020495e+01
3.931196115666792679e+01
3.931195929074382178e+01
3.931195743719479196e+01
3.931195559593790279e+01
3.931195376689039023e+01
3.931195194996969633e+01
3.931195014509341235e+01
3.931194835217934269e+01
3.931194657114544100e+01
3.931194480190986695e+01
3.931194304439093656e+01
3.931194129850716479e+01
3.931193956417724422e+01
3.931193784132003088e+01
3.931193612985457975e+01
3.931193442970012342e+01
3.931193274077606503e+01
3.931193106300199247e+01
3.931192939629767835e+01
3.931192774058306583e+01
3.931192609577828989e+01
3.931192446180366318e+01
3.931192283857966174e+01
3.931192122602696770e+01
3.931191962406641949e+01
3.931191803261906159e+01
3.931191645160608772e+01
3.931191488094889763e+01
3.931191332056906163e+01
3.931191177038832052e+01
3.931191023032861409e+01
3.931190870031205264e+01
3.931190718026091702e+01
3.931190567009768699e+01
3.931190416974501289e+01
3.931190267912572267e+01
3.931190119816282902e+01
3.931189972677951516e+01
3.931189826489916328e+01
3.931189681244926959e+01
3.931189536938325091e+01
3.931189393565698964e+01
3.931189251122525974e+01
3.931189109604270016e+01
3.931188969006375800e+01
3.931188829324276668e+01
3.931188690553388199e+01
3.931188552689110338e+01
3.931188415726828822e+01
3.931188279661913754e+01
3.931188144489718894e+01
3.931188010205583083e+01
3.931187876804829529e+01
3.931187744282766516e+01
3.931187612634686701e+01
3.931187481855867105e+01
3.931187351941569119e+01
3.931187222887039212e+01
3.931187094687508221e+01
3.931186967338190641e+01
3.931186840834287466e+01
3.931186715170982637e+01
3.931186590343444465e+01
3.931186466346827757e+01
3.931186343176269560e+01
3.931186220826893418e+01
3.931186099293805825e+01
3.931185978572099060e+01
3.931185858656848353e+01
3.931185739543116142e+01
3.931185621225947102e+01
3.931185503700370987e+01
3.931185386961403339e+01
3.931185271004041937e+01
3.931185155823271060e+01
3.931185041414059356e+01
3.931184927771359128e+01
3.931184814890108470e+01
3.931184702765228423e+01
3.931184591391625105e+01
3.931184480764190425e+01
3.931184370877799950e+01
3.931184261727313611e+01
3.931184153307575713e+01
3.931184045613416345e+01
3.931183938639648545e+01
3.931183832381071142e+01
3.931183726832467329e+01
3.931183621988603250e+01
3.931183517844232256e+01
3.931183414394090647e+01
3.931183311632899802e+01
3.931183209555364755e+01
3.931183108156176331e+01
3.931183007430009013e+01
3.931182907371522361e+01
3.931182807975360305e+01
3.931182709236151851e+01
3.931182611148509665e+01
3.931182513707030779e+01
3.931182416906298016e+01
3.931182320740878566e+01
3.931182225205322567e+01
3.931182130294166654e+01
3.931182036001931124e+01
3.931181942323121348e+01
3.931181849252225646e+01
3.931181756783719550e+01
3.931181664912060114e+01
3.931181573631692316e+01
3.931181482937042659e+01
3.931181392822524145e+01
3.931181303282532724e+01
3.931181214311450844e+01
3.931181125903643903e+01
3.931181038053463084e+01
3.931180950755243231e+01
3.931180864003303554e+01
3.931180777791948344e+01
3.931180692115650999e+01
3.931180606983868131e+01
3.931180522403019495e+01
3.931180438370867591e+01
3.931180354885142236e+01
3.931180271943541271e+01
3.931180189543731274e+01
3.931180107683344715e+01
3.931180026359983515e+01
3.931179945571216194e+01
3.931179865314578592e+01
3.931179785587575992e+01
3.931179706387680284e+01
3.931179627712329960e+01
3.931179549558932962e+01
3.931179471924865254e+01
3.931179394807467986e+01
3.931179318204053175e+01
3.931179242111898020e+01
3.931179166528248459e+01
3.931179091450318452e+01
3.931179016875289278e+01
3.931178942800309528e+01
3.931178869222496530e+01
3.931178796138934217e+01
3.931178723546674547e+01
3.931178651442737504e+01
3.931178579824111097e+01
3.931178508687750650e+01
3.931178438030578093e+01
3.931178367849484090e+01
3.931178298141328753e+01
3.931178228902935956e+01
3.931178160131101151e+01
3.931178091822584264e+01
3.931178023974116087e+01
3.931177956582392596e+01
3.931177889644078505e+01
3.931177823155805839e+01
3.931177757114175364e+01
3.931177691515754447e+01
3.931177626357077770e+01
3.931177561634650175e+01
3.931177497344940264e+01
3.931177433484388217e+01
3.931177370049400110e+01
3.931177307036349333e+01
3.931177244441578011e+01
3.931177182261394876e+01
3.931177120492078103e+01
3.931177059129871054e+01
3.931176998170987247e+01
3.931176937611606803e+01
3.931176877447877160e+01
3.931176817675914492e+01
3.931176758291801576e+01
3.931176699291589927e+01
3.931176640671297662e+01
3.931176582426910926e+01
3.931176524554385310e+01
3.931176467049641587e+01
3.931176409908569980e+01
3.931176353127026601e+01
3.931176296700837725e+01
3.931176240625794804e+01
3.931176184897659454e+01
3.931176129513184492e+01
3.931176074482808502e+01
3.931176019809207389e+01
3.931175965490857749e+01
3.931175911526216993e+01
3.931175857913724059e+01
3.931175804651800831e+01
3.931175751738850010e+01
3.931175699173256533e+01
3.931175646953386860e+01
3.931175595077590401e+01
3.931175543544195961e+01
3.931175492351517420e+01
3.931175441497846634e+01
3.931175390981461248e+01
3.931175340800616880e+01
3.931175290953554224e+01
3.931175241438494083e+01
3.931175192253639494e+01
3.931175143397174310e+01
3.931175094867266040e+01
3.931175046662062300e+01
3.931174998779693652e+01
3.931174951218271474e+01
3.931174903975890089e+01
3.931174857050624638e+01
3.931174810440532497e+01
3.931174764143653277e+01
3.931174718158007408e+01
3.931174672481597554e+01
3.931174627112407904e+01
3.931174582048406307e+01
3.931174537287539295e+01
3.931174492827737055e+01
3.931174448666912014e+01
3.931174404802957412e+01
3.931174361233748726e+01
3.931174317957142961e+01
3.931174274970978644e+01
3.931174232273077251e+01
3.931174189861241075e+01
3.931174147733254642e+01
3.931174105886883297e+01
3.931174064319876038e+01
3.931174023029961972e+01
3.931173982014853863e+01
3.931173941272243155e+01
3.931173900799806376e+01
3.931173860595200154e+01
3.931173820656063356e+01
3.931173780980016375e+01
3.931173741564661839e+01
3.931173702407583903e+01
3.931173663506348959e+01
3.931173624858503501e+01
3.931173586461578395e+01
3.931173548313084609e+01
3.931173510410515348e+01
3.931173472751346054e+01
3.931173435333032984e+01
3.931173398153014631e+01
3.931173361208711725e+01
3.931173324497526522e+01
3.931173288016842804e+01
3.931173251764027299e+01
3.931173215736426130e+01
3.931173179932462602e+01
3.931173144356119309e+01
3.931173109007472988e+01
3.931173073885774016e+01
3.931173038990257140e+01
3.931173004320137920e+01
3.931172969874616996e+01
3.931172935652877243e+01
3.931172901654083773e+01
3.931172867877385357e+01
3.931172834321914422e+01
3.931172800986784921e+01
3.931172767871095175e+01
3.931172734973925742e+01
3.931172702294340127e+01
3.931172669831384070e+01
3.931172637584089102e+01
3.931172605551465438e+01
3.931172573732511211e+01
3.931172542126202529e+01
3.931172510731502712e+01
3.931172479547355181e+01
3.931172448572687728e+01
3.931172417806411090e+01
3.931172387247418243e+01
3.931172356894586528e+01
3.931172326746774104e+01
3.931172296802824206e+01
3.931172267061561598e+01
3.931172237521795410e+01
3.931172208182315586e+01
3.931172179041897863e+01
3.931172150099299500e+01
3.931172121353259286e+01
3.931172092802501794e+01
3.931172064445733128e+01
3.931172036281642335e+01
3.931172008308900701e+01
3.931171980526164589e+01
3.931171952932071889e+01
3.931171925525243438e+01
3.931171898304283729e+01
3.931171871267778783e+01
3.931171844414300409e+01
3.931171817742399810e+01
3.931171791250614689e+01
3.931171764937462854e+01
3.931171738801446480e+01
3.931171712841050692e+01
3.931171687054743558e+01
3.931171661440976095e+01
3.931171635998181557e+01
3.931171610724777565e+01
3.931171585619163977e+01
3.931171560679722887e+01
3.931171535904820757e+01
3.931171511292806287e+01
3.931171486842011120e+01
3.931171462550749851e+01
3.931171438417320729e+01
3.931171414440004241e+01
3.931171390617063821e+01
3.931171366946746559e+01
3.931171343427281784e+01
3.931171320056881768e+01
3.931171296833743156e+01
3.931171273756044116e+01
3.931171250821946472e+01
3.931171228029594289e+01
3.931171205377114575e+01
3.931171182862619418e+01
3.931171160484201010e+01
3.931171138239936624e+01
3.931171116127885057e+01
3.931171094146630907e+01
3.931171072297613023e+01
3.931171050581340154e+01
3.931171028998050332e+01
3.931171007547953877e+01
3.931170986231228426e+01
3.931170965048022481e+01
3.931170943998453993e+01
3.931170923082608937e+01
3.931170902300544157e+01
3.931170881652286653e+01
3.931170861137830741e+01
3.931170840757141605e+01
3.931170820510154584e+01
3.931170800396773757e+01
3.931170780416871224e+01
3.931170760570291378e+01
3.931170740856846635e+01
3.931170721276318147e+01
3.931170701828458647e+01
3.931170682512988179e+01
3.931170663329598369e+01
3.931170644277948156e+01
3.931170625357667348e+01
3.931170606568355907e+01
3.931170587909581116e+01
3.931170569380881830e+01
3.931170550981765643e+01
3.931170532711708887e+01
3.931170514570159469e+01
3.931170496556531901e+01
3.931170478670212276e+01
3.931170460910556130e+01
3.931170443276887738e+01
3.931170425768501531e+01
3.931170408384659964e+01
3.931170391124597074e+01
3.931170373987515632e+01
3.931170356972587143e+01
3.931170340078952563e+01
3.931170323305724423e+01
3.931170306651982571e+01
3.931170290116777011e+01
3.931170273699127193e+01
3.931170257398022727e+01
3.931170241212421246e+01
3.931170225141251962e+01
3.931170209183412112e+01
3.931170193337768382e+01
3.931170177603156901e+01
3.931170161978385380e+01
3.931170146462228132e+01
3.931170131053431049e+01
3.931170115750707339e+01
3.931170100552742497e+01
3.931170085458190044e+01
3.931170070465672239e+01
3.931170055573782207e+01
3.931170040781081099e+01
3.931170026086102354e+01
3.931170011487346017e+01
3.931169996983282289e+01
3.931169982572351529e+01
3.931169968252964253e+01
3.931169954023498292e+01
3.931169939882302344e+01
3.931169925827695977e+01
3.931169911857964649e+01
3.931169897971367533e+01
3.931169884166129691e+01
3.931169870440448477e+01
3.931169856792487849e+01
3.931169843220384763e+01
3.931169829722242781e+01
3.931169816296135622e+01
3.931169802940108582e+01
3.931169789652172852e+01
3.931169776430311913e+01
3.931169763272477979e+01
3.931169750176602662e+01
3.931169737150639776e+01
3.931169724203122939e+01
3.931169711334565875e+01
3.931169698545445357e+01
3.931169685836201211e+01
3.931169673207237736e+01
3.931169660658920151e+01
3.931169648191580279e+01
3.931169635805511575e+01
3.931169623500969124e+01
3.931169611278174614e+01
3.931169599137311366e+01
3.931169587078525751e+01
3.931169575101927904e+01
3.931169563207591722e+01
3.931169551395554151e+01
3.931169539665814483e+01
3.931169528018336479e+01
3.931169516453047663e+01
3.931169504969837902e+01
3.931169493568560114e+01
3.931169482249031688e+01
3.931169471011032357e+01
3.931169459854305614e+01
3.931169448778559428e+01
3.931169437783461973e+01
3.931169426868648742e+01
3.931169416033714725e+01
3.931169405278221518e+01
3.931169394601692346e+01
3.931169384003613487e+01
3.931169373483434981e+01
3.931169363040571341e+01
3.931169352674398709e+01
3.931169342384256993e+01
3.931169332169450570e+01
3.931169322029244739e+01
3.931169311962871404e+01
3.931169301969523389e+01
3.931169292048357278e+01
3.931169282198493420e+01
3.931169272419015215e+01
3.931169262708969114e+01
3.931169253067366043e+01
3.931169243493179266e+01
3.931169233985345812e+01
3.931169224542765761e+01
3.931169215164302244e+01
3.931169205848782155e+01
3.931169196594995441e+01
3.931169187401696519e+01
3.931169178267601438e+01
3.931169169191390722e+01
3.931169160171707944e+01
3.931169151207159729e+01
3.931169142296316465e+01
3.931169133437711594e+01
3.931169124629841605e+01
3.931169115871166753e+01
3.931169107160111054e+01
3.931169098495060865e+01
3.931169089874366307e+01
3.931169081296341261e+01
3.931169072759262662e+01
3.931169064261370494e+01
3.931169055800872059e+01
3.931169047384203452e+01
3.931169039018520550e+01
3.931169030704110412e+01
3.931169022441238070e+01
3.931169014230147241e+01
3.931169006071058902e+01
3.931168997964172007e+01
3.931168989909664901e+01
3.931168981907691773e+01
3.931168973958385493e+01
3.931168966061857617e+01
3.931168958218196963e+01
3.931168950427471032e+01
3.931168942689723877e+01
3.931168935004978948e+01
3.931168927373237665e+01
3.931168919794478001e+01
3.931168912268658033e+01
3.931168904795710972e+01
3.931168897375550841e+01
3.931168890008067507e+01
3.931168882693130939e+01
3.931168875430586240e+01
3.931168868220259327e+01
3.931168861061951958e+01
3.931168853955445996e+01
3.931168846900498437e+01
3.931168839896846379e+01
3.931168832944204894e+01
3.931168826042266318e+01
3.931168819190700248e+01
3.931168812389156386e+01
3.931168805637259567e+01
3.931168798934615438e+01
3.931168792280806201e+01
3.931168785675391320e+01
3.931168779117908940e+01
3.931168772607876605e+01
3.931168766144787696e+01
3.931168759728114281e+01
3.931168753357306400e+01
3.931168747031792066e+01
3.931168740750977975e+01
3.931168734514248086e+01
3.931168728320963623e+01
3.931168722170465202e+01
3.931168716062070700e+01
3.931168709995075972e+01
3.931168703968754841e+01
3.931168697982359106e+01
3.931168692035117829e+01
3.931168686126240175e+01
3.931168680254911862e+01
3.931168674420295162e+01
3.931168668621532447e+01
3.931168662857744067e+01
3.931168657128026922e+01
3.931168651431456595e+01
3.931168645767087355e+01
3.931168640133949310e+01
3.931168634531053385e+01
3.931168628957386346e+01
3.931168623411913643e+01
3.931168617893579409e+01
3.931168612401303619e+01
3.931168606933987064e+01
3.931168601493983772e+01
3.931168596084484790e+01
3.931168590705866706e+01
3.931168585358485501e+01
3.931168580042680816e+01
3.931168574758773104e+01
3.931168569507063637e+01
3.931168564287836631e+01
3.931168559101357118e+01
3.931168553947870947e+01
3.931168548827608333e+01
3.931168543740777466e+01
3.931168538687570191e+01
3.931168533668160592e+01
3.931168528682702146e+01
3.931168523731331987e+01
3.931168518814168067e+01
3.931168513931309150e+01
3.931168509082836238e+01
3.931168504268812569e+01
3.931168499489282908e+01
3.931168494744271413e+01
3.931168490033786611e+01
3.931168485357817843e+01
3.931168480716334557e+01
3.931168476109289855e+01
3.931168471536617659e+01
3.931168466998232702e+01
3.931168462494031957e+01
3.931168458023893919e+01
3.931168453587679323e+01
3.931168449185229719e+01
3.931168444816368179e+01
3.931168440480899307e+01
3.931168436178610648e+01
3.931168431909269145e+01
3.931168427672625398e+01
3.931168423468410111e+01
3.931168419296336225e+01
3.931168415156098206e+01
3.931168411047372757e+01
3.931168406969815976e+01
3.931168402923069038e+01
3.931168398906751094e+01
3.931168394920464948e+01
3.931168390963794934e+01
3.931168387036306910e+01
3.931168383137547551e+01
3.931168379267045765e+01
3.931168375424311989e+01
3.931168371608837475e+01
3.931168367820097131e+01
3.931168364057544551e+01
3.931168360320617694e+01
3.931168356608733916e+01
3.931168352921294229e+01
3.931168349257679040e+01
3.931168345617251703e+01
3.931168341999357096e+01
3.931168338403321627e+01
3.931168334828452515e+01
3.931168331274039218e+01
3.931168327739354140e+01
3.931168324223648369e+01
3.931168320726155940e+01
3.931168317246094546e+01
3.931168313782659141e+01
3.931168310335031180e+01
3.931168306902368670e+01
3.931168303483816118e+01
3.931168300078496003e+01
3.931168296685513042e+01
3.931168293303955608e+01
3.931168289932892890e+01
3.931168286572881954e+01
3.931168283225552784e+01
3.931168279891721085e+01
3.931168276572174847e+01
3.931168273267674351e+01
3.931168269978951457e+01
3.931168266706711023e+01
3.931168263451630196e+01
3.931168260214356991e+01
3.931168256995514554e+01
3.931168253795694056e+01
3.931168250615463222e+01
3.931168247455359221e+01
3.931168244315892935e+01
3.931168241197545399e+01
3.931168238100772783e+01
3.931168235026001412e+01
3.931168231973630611e+01
3.931168228944031995e+01
3.931168225937548755e+01
3.931168222954497082e+01
3.931168219995164748e+01
3.931168217059812520e+01
3.931168214148672746e+01
3.931168211261950773e+01
3.931168208399823527e+01
3.931168205562440221e+01
3.931168202749921647e+01
3.931168199962363019e+01
3.931168197199828995e+01
3.931168194462359367e+01
3.931168191749962659e+01
3.931168189062623242e+01
3.931168186400295639e+01
3.931168183762907375e+01
3.931168181150356844e+01
3.931168178562516857e+01
3.931168175999230385e+01
3.931168173460314819e+01
3.931168170945556994e+01
3.931168168454718881e+01
3.931168165987532603e+01
3.931168163543703287e+01
3.931168161122909055e+01
3.931168158724798900e+01
3.931168156348994103e+01
3.931168153995089654e+01
3.931168151662651411e+01
3.931168149351218233e+01
3.931168147060300555e+01
3.931168144789381103e+01
3.931168142537915600e+01
3.931168140305331349e+01
3.931168138091027942e+01
3.931168135894377258e+01
3.931168133714724178e+01
3.931168131551384448e+01
3.931168129403647526e+01
3.931168127270773027e+01
3.931168125151994985e+01
3.931168123046518303e+01
3.931168120953520884e+01
3.931168118872152917e+01
3.931168116801535461e+01
3.931168114740763997e+01
3.931168112688904159e+01
3.931168110644995295e+01
3.931168108608047618e+01
3.931168106577045762e+01
3.931168104550944520e+01
3.931168102528670971e+01
3.931168100509125907e+01
3.931168098491181695e+01
3.931168096473682283e+01
3.931168094455444617e+01
3.931168092435257222e+01
3.931168090411881622e+01
3.931168088384050918e+01
3.931168086350471214e+01
3.931168084310100141e+01
3.931168082271502584e+01
3.931168080239878293e+01
3.931168078216069262e+01
3.931168076200881956e+01
3.931168074195090156e+01
3.931168072199433539e+01
3.931168070214619092e+01
3.931168068241319702e+01
3.931168066280174145e+01
3.931168064331787804e+01
3.931168062396734086e+01
3.931168060475550874e+01
3.931168058568743362e+01
3.931168056676782641e+01
3.931168054800107114e+01
3.931168052939120372e+01
3.931168051094193316e+01
3.931168049265664166e+01
3.931168047453835612e+01
3.931168045658976951e+01
3.931168043881326213e+01
3.931168042121085193e+01
3.931168040378423711e+01
3.931168038653477481e+01
3.931168036946347399e+01
3.931168035257103810e+01
3.931168033585781529e+01
3.931168031932380558e+01
3.931168030296870342e+01
3.931168028679184090e+01
3.931168027079223037e+01
3.931168025496853602e+01
3.931168023931910938e+01
3.931168022384193961e+01
3.931168020853468903e+01
3.931168019339469311e+01
3.931168017841893914e+01
3.931168016360408046e+01
3.931168014894645069e+01
3.931168013444203524e+01
3.931168012008647139e+01
3.931168010587507666e+01
3.931168009180284173e+01
3.931168007786439489e+01
3.931168006405405180e+01
3.931168005036577995e+01
3.931168003679321998e+01
3.931168002332966438e+01
3.931168000996807876e+01
3.931167999670110191e+01
3.931167998352101733e+01
3.931167997041977458e+01
3.931167995738901766e+01
3.931167994442000690e+01
3.931167993150371132e+01
3.931167991863073752e+01
3.931167990579135818e+01
3.931167989297552623e+01
3.931167988017284642e+01
3.931167986737258957e+01
3.931167985456368541e+01
3.931167984173473684e+01
3.931167982887401280e+01
3.931167981596944117e+01
3.931167980300860876e+01
3.931167978997877555e+01
3.931167977687064763e+01
3.931167976376515583e+01
3.931167975070394505e+01
3.931167973769252200e+01
3.931167972473618022e+01
3.931167971183999299e+01
3.931167969900879910e+01
3.931167968624724551e+01
3.931167967355973758e+01
3.931167966095045330e+01
3.931167964842338591e+01
3.931167963598226578e+01
3.931167962363063140e+01
3.931167961137179390e+01
3.931167959920884414e+01
3.931167958714465271e+01
3.931167957518186284e+01
3.931167956332291169e+01
3.931167955157000904e+01
3.931167953992514441e+01
3.931167952839008706e+01
3.931167951696638596e+01
3.931167950565536984e+01
3.931167949445814713e+01
3.931167948337561313e+01
3.931167947240844285e+01
3.931167946155706971e+01
3.931167945082173532e+01
3.931167944020243965e+01
3.931167942969898377e+01
3.931167941931092713e+01
3.931167940903763025e+01
3.931167939887820495e+01
3.931167938883157831e+01
3.931167937889642872e+01
3.931167936907122851e+01
3.931167935935422975e+01
3.931167934974345712e+01
3.931167934023672217e+01
3.931167933083160904e+01
3.931167932152548872e+01
3.931167931231551194e+01
3.931167930319860915e+01
3.931167929417147633e+01
3.931167928523062471e+01
3.931167927637230264e+01
3.931167926759256659e+01
3.931167925888724568e+01
3.931167925025194165e+01
3.931167924168205019e+01
3.931167923317273960e+01
3.931167922471895082e+01
3.931167921631541873e+01
3.931167920795664372e+01
3.931167919963692725e+01
3.931167919135032207e+01
3.931167918309068909e+01
3.931167917485164054e+01
3.931167916662660389e+01
3.931167915840875082e+01
3.931167915019105408e+01
3.931167914196625901e+01
3.931167913372689782e+01
3.931167912546527532e+01
3.931167911717347607e+01
3.931167910884337147e+01
3.931167910046661262e+01
3.931167909203701072e+01
3.931167908359212504e+01
3.931167907515193605e+01
3.931167906672201440e+01
3.931167905830773890e+01
3.931167904991428230e+01
3.931167904154665393e+01
3.931167903320964285e+01
3.931167902490786048e+01
3.931167901664573350e+01
3.931167900842748963e+01
3.931167900025717188e+01
3.931167899213862427e+01
3.931167898407549899e+01
3.931167897607127060e+01
3.931167896812921470e+01
3.931167896025241504e+01
3.931167895244376354e+01
3.931167894470596735e+01
3.931167893704153471e+01
3.931167892945279618e+01
3.931167892194187630e+01
3.931167891451071483e+01
3.931167890716106683e+01
3.931167889989448838e+01
3.931167889271235083e+01
3.931167888561581947e+01
3.931167887860590326e+01
3.931167887168337671e+01
3.931167886484885088e+01
3.931167885810275209e+01
3.931167885144528640e+01
3.931167884487649644e+01
3.931167883839622590e+01
3.931167883200411950e+01
3.931167882569964434e+01
3.931167881948206855e+01
3.931167881335046843e+01
3.931167880730372843e+01
3.931167880134055537e+01
3.931167879545944999e+01
3.931167878965872831e+01
3.931167878393651449e+01
3.931167877829074797e+01
3.931167877271916922e+01
3.931167876721933396e+01
3.931167876178859899e+01
3.931167875642413634e+01
3.931167875112292620e+01
3.931167874588176403e+01
3.931167874069724633e+01
3.931167873556577774e+01
3.931167873048357109e+01
3.931167872544666864e+01
3.931167872045089240e+01
3.931167871549189385e+01
3.931167871056512553e+01
3.931167870566584810e+01
3.931167870078913751e+01
3.931167869592987785e+01
3.931167869108276136e+01
3.931167868624228134e+01
3.931167868140274635e+01
3.931167867655828729e+01
3.931167867170281482e+01
3.931167866683008327e+01
3.931167866193363380e+01
3.931167865700681574e+01
3.931167865204280076e+01
3.931167864703456161e+01
3.931167864197487916e+01
3.931167863685634956e+01
3.931167863167137710e+01
3.931167862641216004e+01
3.931167862107074029e+01
3.931167861565537436e+01
3.931167861018474241e+01
3.931167860466793940e+01
3.931167859911379026e+01
3.931167859353084282e+01
3.931167858792735359e+01
3.931167858231131618e+01
3.931167857669043997e+01
3.931167857107214303e+01
3.931167856546359474e+01
3.931167855987165183e+01
3.931167855430292235e+01
3.931167854876371592e+01
3.931167854326007216e+01
3.931167853779775356e+01
3.931167853238223842e+01
3.931167852701872789e+01
3.931167852171214605e+01
3.931167851646713984e+01
3.931167851128808621e+01
3.931167850617905657e+01
3.931167850114388074e+01
3.931167849618607590e+01
3.931167849130890346e+01
3.931167848651533347e+01
3.931167848180807312e+01
3.931167847718953112e+01
3.931167847266185333e+01
3.931167846822690137e+01
3.931167846388625264e+01
3.931167845964122165e+01
3.931167845549282447e+01
3.931167845144182138e+01
3.931167844748867424e+01
3.931167844363357489e+01
3.931167843987643806e+01
3.931167843621690139e+01
3.931167843265431827e+01
3.931167842918775790e+01
3.931167842581603367e+01
3.931167842253766054e+01
3.931167841935088347e+01
3.931167841625366322e+01
3.931167841324368339e+01
3.931167841031835763e+01
3.931167840747481534e+01
3.931167840470990171e+01
3.931167840202018482e+01
3.931167839940196984e+01
3.931167839685126353e+01
3.931167839436380973e+01
3.931167839193506097e+01
3.931167838956019978e+01
3.931167838723413155e+01
3.931167838495147038e+01
3.931167838270656745e+01
3.931167838049348973e+01
3.931167837830601997e+01
3.931167837613767091e+01
3.931167837398167819e+01
3.931167837183098612e+01
3.931167836967827611e+01
3.931167836751593825e+01
3.931167836533609261e+01
3.931167836313058217e+01
3.931167836089096568e+01
3.931167835860852477e+01
3.931167835627425688e+01
3.931167835387889653e+01
3.931167835141289402e+01
3.931167834886640122e+01
3.931167834622932133e+01
3.931167834349126622e+01
3.931167834064157063e+01
3.931167833766927799e+01
3.931167833456317595e+01
3.931167833131176081e+01
3.931167832790325178e+01
3.931167832432559095e+01
3.931167832060057066e+01
3.931167831682579106e+01
3.931167831301640803e+01
3.931167830918116834e+01
3.931167830532850616e+01
3.931167830146649322e+01
3.931167829760291710e+01
3.931167829374519584e+01
3.931167828990043489e+01
3.931167828607540571e+01
3.931167828227654581e+01
3.931167827850998009e+01
3.931167827478147103e+01
3.931167827109648272e+01
3.931167826746013816e+01
3.931167826387721220e+01
3.931167826035216706e+01
3.931167825688914519e+01
3.931167825349193379e+01
3.931167825016400030e+01
3.931167824690848533e+01
3.931167824372820263e+01
3.931167824062561778e+01
3.931167823760288371e+01
3.931167823466181233e+01
3.931167823180389576e+01
3.931167822903028508e+01
3.931167822634180453e+01
3.931167822373895149e+01
3.931167822122189648e+01
3.931167821879045476e+01
3.931167821644415028e+01
3.931167821418214459e+01
3.931167821200328660e+01
3.931167820990607709e+01
3.931167820788871836e+01
3.931167820594904327e+01
3.931167820408457914e+01
3.931167820229251930e+01
3.931167820056972317e+01
3.931167819891272330e+01
3.931167819731771118e+01
3.931167819578056566e+01
3.931167819429681742e+01
3.931167819286168452e+01
3.931167819147003684e+01
3.931167819011642450e+01
3.931167818879506370e+01
3.931167818749984377e+01
3.931167818622432719e+01
3.931167818496172828e+01
3.931167818370495581e+01
3.931167818244656331e+01
3.931167818117879165e+01
3.931167817989354774e+01
3.931167817858240454e+01
3.931167817723660107e+01
3.931167817584705659e+01
3.931167817440434931e+01
3.931167817289873767e+01
3.931167817132013909e+01
3.931167816965815121e+01
3.931167816790203773e+01
3.931167816604072129e+01
3.931167816406280480e+01
3.931167816195656428e+01
3.931167815970993473e+01
3.931167815732190718e+01
3.931167815488164763e+01
3.931167815241578722e+01
3.931167814993028031e+01
3.931167814743086808e+01
3.931167814492307144e+01
3.931167814241218394e+01
3.931167813990327176e+01
3.931167813740118788e+01
3.931167813491055796e+01
3.931167813243579445e+01
3.931167812998106115e+01
3.931167812755033708e+01
3.931167812514734550e+01
3.931167812277560358e+01
3.931167812043840115e+01
3.931167811813881485e+01
3.931167811587967975e+01
3.931167811366363196e+01
3.931167811149306601e+01
3.931167810937015616e+01
3.931167810729686352e+01
3.931167810527492890e+01
3.931167810330584445e+01
3.931167810139091756e+01
3.931167809953120695e+01
3.931167809772755106e+01
3.931167809598058227e+01
3.931167809429069138e+01
3.931167809265804891e+01
3.931167809108261935e+01
3.931167808956412557e+01
3.931167808810207731e+01
3.931167808669575692e+01
3.931167808534424069e+01
3.931167808404634911e+01
3.931167808280071796e+01
3.931167808160573429e+01
3.931167808045957202e+01
3.931167807936017766e+01
3.931167807830528460e+01
3.931167807729239883e+01
3.931167807631879896e+01
3.931167807538154335e+01
3.931167807447747009e+01
3.931167807360319699e+01
3.931167807275512160e+01
3.931167807192939989e+01
3.931167807112198886e+01
3.931167807032861816e+01
3.931167806954477584e+01
3.931167806876575099e+01
3.931167806798659825e+01
3.931167806720215196e+01
3.931167806640702622e+01
3.931167806559560773e+01
3.931167806476206295e+01
3.931167806390033803e+01
3.931167806300415890e+01
3.931167806206701698e+01
3.931167806108219054e+01
3.931167806004273757e+01
3.931167805894148159e+01
3.931167805777104718e+01
3.931167805652380309e+01
3.931167805519192626e+01
3.931167805376735203e+01
3.931167805224242784e+01
3.931167805064946918e+01
3.931167804901487983e+01
3.931167804734460702e+01
3.931167804564440615e+01
3.931167804391983367e+01
3.931167804217624706e+01
3.931167804041882619e+01
3.931167803865254484e+01
3.931167803688217788e+01
3.931167803511230829e+01
3.931167803334733435e+01
3.931167803159144825e+01
3.931167802984865034e+01
3.931167802812274914e+01
3.931167802641735420e+01
3.931167802473589035e+01
3.931167802308156212e+01
3.931167802145741774e+01
3.931167801986627808e+01
3.931167801831077924e+01
3.931167801679337970e+01
3.931167801531631056e+01
3.931167801388163952e+01
3.931167801249122107e+01
3.931167801114672500e+01
3.931167800984960792e+01
3.931167800860116301e+01
3.931167800740246321e+01
3.931167800625438957e+01
3.931167800515764554e+01
3.931167800411272140e+01
3.931167800311991556e+01
3.931167800217934172e+01
3.931167800129090750e+01
3.931167800045434291e+01
3.931167799966915766e+01
3.931167799893469095e+01
3.931167799825006881e+01
3.931167799761423254e+01
3.931167799702593157e+01
3.931167799648370931e+01
3.931167799598593149e+01
3.931167799553075071e+01
3.931167799511612770e+01
3.931167799473985269e+01
3.931167799439948141e+01
3.931167799409241326e+01
3.931167799381582739e+01
3.931167799356671111e+01
3.931167799334187407e+01
3.931167799313791278e+01
3.931167799295123899e+01
3.931167799277806552e+01
3.931167799261441331e+01
3.931167799245609729e+01
3.931167799229876181e+01
3.931167799213783809e+01
3.931167799196855839e+01
3.931167799178597733e+01
3.931167799158494347e+01
3.931167799136011354e+01
3.931167799110595240e+01
3.931167799081671888e+01
3.931167799048649414e+01
3.931167799010915331e+01
3.931167798967837967e+01
3.931167798918766465e+01
3.931167798863029361e+01
3.931167798799937430e+01
3.931167798728780127e+01
3.931167798648829859e+01
3.931167798559337712e+01
3.931167798459534879e+01
3.931167798348634079e+01
3.931167798227401988e+01
3.931167798097962418e+01
3.931167797961239074e+01
3.931167797818125820e+01
3.931167797669489516e+01
3.931167797516167184e+01
3.931167797358969551e+01
3.931167797198678926e+01
3.931167797036050615e+01
3.931167796871810793e+01
3.931167796706657924e+01
3.931167796541264181e+01
3.931167796376271895e+01
3.931167796212296395e+01
3.931167796049926721e+01
3.931167795889720651e+01
3.931167795732211090e+01
3.931167795577902524e+01
3.931167795427269596e+01
3.931167795280762078e+01
3.931167795138800614e+01
3.931167795001776710e+01
3.931167794870055587e+01
3.931167794743974753e+01
3.931167794623842582e+01
3.931167794509941160e+01
3.931167794402524152e+01
3.931167794301816087e+01
3.931167794208015209e+01
3.931167794121292047e+01
3.931167794041788000e+01
3.931167793969617463e+01
3.931167793904867125e+01
3.931167793847595249e+01
3.931167793797832388e+01
3.931167793755582096e+01
3.931167793720819503e+01
3.931167793693490609e+01
3.931167793673515831e+01
3.931167793660786458e+01
3.931167793655166776e+01
3.931167793656491227e+01
3.931167793664569388e+01
3.931167793679179567e+01
3.931167793700075919e+01
3.931167793726982040e+01
3.931167793759595241e+01
3.931167793797582988e+01
3.931167793840587166e+01
3.931167793888221240e+01
3.931167793940069544e+01
3.931167793995690118e+01
3.931167794054612585e+01
3.931167794116338854e+01
3.931167794180341701e+01
3.931167794246068325e+01
3.931167794312936792e+01
3.931167794380337455e+01
3.931167794447632247e+01
3.931167794514156810e+01
3.931167794579217656e+01
3.931167794642093583e+01
3.931167794702035678e+01
3.931167794758267320e+01
3.931167794809984883e+01
3.931167794856354902e+01
3.931167794896517620e+01
3.931167794929584858e+01
3.931167794954641437e+01
3.931167794970742335e+01
3.931167794976917662e+01
3.931167794972166973e+01
3.931167794955462824e+01
3.931167794925750769e+01
3.931167794881947231e+01
3.931167794822942341e+01
3.931167794747596389e+01
3.931167794654744085e+01
3.931167794543191718e+01
3.931167794418784922e+01
3.931167794288624151e+01
3.931167794153611794e+01
3.931167794014620398e+01
3.931167793872487692e+01
3.931167793728019433e+01
3.931167793581988690e+01
3.931167793435135138e+01
3.931167793288166479e+01
3.931167793141757727e+01
3.931167792996549792e+01
3.931167792853152321e+01
3.931167792712141562e+01
3.931167792574061082e+01
3.931167792439421049e+01
3.931167792308700371e+01
3.931167792182343845e+01
3.931167792060763588e+01
3.931167791944340451e+01
3.931167791833419756e+01
3.931167791728316985e+01
3.931167791629312802e+01
3.931167791536655898e+01
3.931167791450562277e+01
3.931167791371215259e+01
3.931167791298764769e+01
3.931167791233328757e+01
3.931167791174991777e+01
3.931167791123805699e+01
3.931167791079790419e+01
3.931167791042931725e+01
3.931167791013184143e+01
3.931167790990467381e+01
3.931167790974671306e+01
3.931167790965649544e+01
3.931167790963226594e+01
3.931167790967190712e+01
3.931167790977300314e+01
3.931167790993278999e+01
3.931167791014818391e+01
3.931167791041577431e+01
3.931167791073182372e+01
3.931167791109226783e+01
3.931167791149270840e+01
3.931167791192842031e+01
3.931167791239435871e+01
3.931167791288514479e+01
3.931167791339507289e+01
3.931167791391810340e+01
3.931167791444789117e+01
3.931167791497773578e+01
3.931167791550061708e+01
3.931167791600920935e+01
3.931167791649582455e+01
3.931167791695246905e+01
3.931167791737081529e+01
3.931167791774221598e+01
3.931167791805768275e+01
3.931167791830790748e+01
3.931167791848325521e+01
3.931167791857375704e+01
3.931167791856911720e+01
3.931167791845872728e+01
3.931167791823162361e+01
3.931167791787655119e+01
3.931167791738188555e+01
3.931167791673571088e+01
3.931167791594040750e+01
3.931167791508568854e+01
3.931167791419419189e+01
3.931167791327204952e+01
3.931167791232513764e+01
3.931167791135912637e+01
3.931167791037945136e+01
3.931167790939132800e+01
3.931167790839974430e+01
3.931167790740946799e+01
3.931167790642502524e+01
3.931167790545072904e+01
3.931167790449067212e+01
3.931167790354870561e+01
3.931167790262847461e+01
3.931167790173338261e+01
3.931167790086660574e+01
3.931167790003111406e+01
3.931167789922963607e+01
3.931167789846467997e+01
3.931167789773852661e+01
3.931167789705322235e+01
3.931167789641061461e+01
3.931167789581230210e+01
3.931167789525966327e+01
3.931167789475384922e+01
3.931167789429579074e+01
3.931167789388619127e+01
3.931167789352553399e+01
3.931167789321406048e+01
3.931167789295180626e+01
3.931167789273856528e+01
3.931167789257391831e+01
3.931167789245721877e+01
3.931167789238757848e+01
3.931167789236391030e+01
3.931167789238487842e+01
3.931167789244894095e+01
3.931167789255430733e+01
3.931167789269898805e+01
3.931167789288074488e+01
3.931167789309712646e+01
3.931167789334545404e+01
3.931167789362282150e+01
3.931167789392610246e+01
3.931167789425193604e+01
3.931167789459674111e+01
3.931167789495671627e+01
3.931167789532782564e+01
3.931167789570581306e+01
3.931167789608618790e+01
3.931167789646425348e+01
3.931167789683506442e+01
3.931167789719346217e+01
3.931167789753406794e+01
3.931167789785126132e+01
3.931167789813921587e+01
3.931167789839186355e+01
3.931167789860291606e+01
3.931167789876587193e+01
3.931167789887397390e+01
3.931167789892027287e+01
3.931167789889757103e+01
3.931167789879845742e+01
3.931167789861529371e+01
3.931167789834020709e+01
3.931167789796511158e+01
3.931167789748169383e+01
3.931167789691127723e+01
3.931167789629050446e+01
3.931167789562557147e+01
3.931167789492241837e+01
3.931167789418678638e+01
3.931167789342421770e+01
3.931167789264005563e+01
3.931167789183944450e+01
3.931167789102732968e+01
3.931167789020845049e+01
3.931167788938736862e+01
3.931167788856841838e+01
3.931167788775576355e+01
3.931167788695335474e+01
3.931167788616492942e+01
3.931167788539406160e+01
3.931167788464409796e+01
3.931167788391819329e+01
3.931167788321930345e+01
3.931167788255019957e+01
3.931167788191342538e+01
3.931167788131135410e+01
3.931167788074615288e+01
3.931167788021977572e+01
3.931167787973398475e+01
3.931167787929035740e+01
3.931167787889026499e+01
3.931167787853485862e+01
3.931167787822512594e+01
3.931167787796182722e+01
3.931167787774554512e+01
3.931167787757664200e+01
3.931167787745530973e+01
3.931167787738150565e+01
3.931167787735502372e+01
3.931167787737543762e+01
3.931167787744212205e+01
3.931167787755426701e+01
3.931167787771084932e+01
3.931167787791066104e+01
3.931167787815227399e+01
3.931167787843408945e+01
3.931167787875428843e+01
3.931167787911086009e+01
3.931167787950159465e+01
3.931167787992408336e+01
3.931167788037572564e+01
3.931167788085370063e+01
3.931167788135502406e+01
3.931167788187647716e+01
3.931167788241466354e+01
3.931167788296597365e+01
3.931167788352662740e+01
3.931167788409260311e+01
3.931167788465972279e+01
3.931167788522358109e+01
3.931167788577958788e+01
3.931167788632293991e+01
3.931167788684865627e+01
3.931167788735154289e+01
3.931167788782620676e+01
3.931167788826706300e+01
3.931167788866832780e+01
3.931167788902400417e+01
3.931167788932791751e+01
3.931167788957368003e+01
3.931167788975471211e+01
3.931167788986422806e+01
3.931167788989525036e+01
3.931167788984060252e+01
3.931167788969290910e+01
3.931167788944458863e+01
3.931167788908787486e+01
3.931167788861478840e+01
3.931167788803101359e+01
3.931167788736087942e+01
3.931167788661387164e+01
3.931167788579895728e+01
3.931167788492481918e+01
3.931167788399986307e+01
3.931167788303222466e+01
3.931167788202973412e+01
3.931167788099997296e+01
3.931167787995023133e+01
3.931167787888751519e+01
3.931167787781854628e+01
3.931167787674979053e+01
3.931167787568741545e+01
3.931167787463731145e+01
3.931167787360509180e+01
3.931167787259609980e+01
3.931167787161537319e+01
3.931167787066770813e+01
3.931167786975758816e+01
3.931167786888923388e+01
3.931167786806658171e+01
3.931167786729329094e+01
3.931167786657274377e+01
3.931167786590804525e+01
3.931167786530200914e+01
3.931167786475717918e+01
3.931167786427581490e+01
3.931167786385990581e+01
3.931167786351115723e+01
3.931167786323098312e+01
3.931167786302054168e+01
3.931167786288069266e+01
3.931167786281202581e+01
3.931167786281485377e+01
3.931167786288919785e+01
3.931167786303480227e+01
3.931167786325115543e+01
3.931167786353743310e+01
3.931167786389254815e+01
3.931167786431514344e+01
3.931167786480356341e+01
3.931167786535588249e+01
3.931167786596989799e+01
3.931167786664313013e+01
3.931167786737280778e+01
3.931167786815588272e+01
3.931167786898905092e+01
3.931167786986869572e+01
3.931167787079094467e+01
3.931167787175162687e+01
3.931167787274631564e+01
3.931167787377029299e+01
3.931167787481854958e+01
3.931167787588581319e+01
3.931167787696653448e+01
3.931167787805487279e+01
3.931167787914471035e+01
3.931167788022965937e+01
3.931167788130304785e+01
3.931167788235791249e+01
3.931167788338703417e+01
3.931167788438289534e+01
3.931167788533770846e+01
3.931167788624340886e+01
3.931167788709163347e+01
3.931167788787377049e+01
3.931167788858090262e+01
3.931167788920384965e+01
3.931167788973314003e+01
3.931167789015903224e+01
3.931167789047150052e+01
3.931167789066024909e+01
3.931167789071468377e+01
3.931167789062395457e+01
3.931167789037690596e+01
3.931167788996213375e+01
3.931167788936792817e+01
3.931167788858532930e+01
3.931167788766199322e+01
3.931167788662859408e+01
3.931167788549838349e+01
3.931167788428420096e+01
3.931167788299843835e+01
3.931167788165306831e+01
3.931167788025965137e+01
3.931167787882929332e+01
3.931167787737270203e+01
3.931167787590012352e+01
3.931167787442141304e+01
3.931167787294596394e+01
3.931167787148277171e+01
3.931167787004039127e+01
3.931167786862693703e+01
3.931167786725012547e+01
3.931167786591721836e+01
3.931167786463506530e+01
3.931167786341008252e+01
3.931167786224825988e+01
3.931167786115516094e+01
3.931167786013592291e+01
3.931167785919525670e+01
3.931167785833743267e+01
3.931167785756630906e+01
3.931167785688531069e+01
3.931167785629744316e+01
3.931167785580527152e+01
3.931167785541093451e+01
3.931167785511615165e+01
3.931167785492220901e+01
3.931167785482998056e+01
3.931167785483987842e+01
3.931167785495192390e+01
3.931167785516569069e+01
3.931167785548033322e+01
3.931167785589457253e+01
3.931167785640670331e+01
3.931167785701459394e+01
3.931167785771568646e+01
3.931167785850699659e+01
3.931167785938511372e+01
3.931167786034618672e+01
3.931167786138595233e+01
3.931167786249972096e+01
3.931167786368236250e+01
3.931167786492832050e+01
3.931167786623163352e+01
3.931167786758587823e+01
3.931167786898422634e+01
3.931167787041942319e+01
3.931167787188378071e+01
3.931167787336917741e+01
3.931167787486706544e+01
3.931167787636848487e+01
3.931167787786403522e+01
3.931167787934388969e+01
3.931167788079780223e+01
3.931167788221507919e+01
3.931167788358461479e+01
3.931167788489488402e+01
3.931167788613391423e+01
3.931167788728932777e+01
3.931167788834829224e+01
3.931167788929757023e+01
3.931167789012349090e+01
3.931167789081194996e+01
3.931167789134842394e+01
3.931167789171794880e+01
3.931167789190515549e+01
3.931167789189422734e+01
3.931167789166892845e+01
3.931167789121259659e+01
3.931167789050812900e+01
3.931167788954602571e+01
3.931167788845121436e+01
3.931167788728120627e+01
3.931167788604758329e+01
3.931167788476151514e+01
3.931167788343373815e+01
3.931167788207457647e+01
3.931167788069392088e+01
3.931167787930126423e+01
3.931167787790564461e+01
3.931167787651570222e+01
3.931167787513964385e+01
3.931167787378526413e+01
3.931167787245992429e+01
3.931167787117056633e+01
3.931167786992372015e+01
3.931167786872548930e+01
3.931167786758154392e+01
3.931167786649714202e+01
3.931167786547712950e+01
3.931167786452590462e+01
3.931167786364746775e+01
3.931167786284537868e+01
3.931167786212279935e+01
3.931167786148245114e+01
3.931167786092662908e+01
3.931167786045721613e+01
3.931167786007568310e+01
3.931167785978305318e+01
3.931167785957995164e+01
3.931167785946657034e+01
3.931167785944268189e+01
3.931167785950763260e+01
3.931167785966035666e+01
3.931167785989934771e+01
3.931167786022270860e+01
3.931167786062808034e+01
3.931167786111272022e+01
3.931167786167344502e+01
3.931167786230663808e+01
3.931167786300828482e+01
3.931167786377393725e+01
3.931167786459872104e+01
3.931167786547734977e+01
3.931167786640411066e+01
3.931167786737285752e+01
3.931167786837704625e+01
3.931167786940969222e+01
3.931167787046339868e+01
3.931167787153033544e+01
3.931167787260226731e+01
3.931167787367051147e+01
3.931167787472599429e+01
3.931167787575920158e+01
3.931167787676019287e+01
3.931167787771862265e+01
3.931167787862371199e+01
3.931167787946426273e+01
3.931167788022865750e+01
3.931167788090483839e+01
3.931167788148036379e+01
3.931167788194233026e+01
3.931167788227743642e+01
3.931167788247195460e+01
3.931167788251172368e+01
3.931167788238217753e+01
3.931167788206832370e+01
3.931167788155472920e+01
3.931167788085205217e+01
3.931167788008563946e+01
3.931167787928005453e+01
3.931167787844231754e+01
3.931167787757916443e+01
3.931167787669707536e+01
3.931167787580226758e+01
3.931167787490066701e+01
3.931167787399794378e+01
3.931167787309950512e+01
3.931167787221046694e+01
3.931167787133569647e+01
3.931167787047978379e+01
3.931167786964704192e+01
3.931167786884152804e+01
3.931167786806701514e+01
3.931167786732702041e+01
3.931167786662479102e+01
3.931167786596328284e+01
3.931167786534520303e+01
3.931167786477299586e+01
3.931167786424880717e+01
3.931167786377453410e+01
3.931167786335181091e+01
3.931167786298198052e+01
3.931167786266613007e+01
3.931167786240506956e+01
3.931167786219935323e+01
3.931167786204925108e+01
3.931167786195476310e+01
3.931167786191563351e+01
3.931167786193132230e+01
3.931167786200102654e+01
3.931167786212368043e+01
3.931167786229793393e+01
3.931167786252217411e+01
3.931167786279452514e+01
3.931167786311283407e+01
3.931167786347467086e+01
3.931167786387734964e+01
3.931167786431791455e+01
3.931167786479312554e+01
3.931167786529949382e+01
3.931167786583323931e+01
3.931167786639033324e+01
3.931167786696645550e+01
3.931167786755703730e+01
3.931167786815722565e+01
3.931167786876189751e+01
3.931167786936567410e+01
3.931167786996289948e+01
3.931167787054764062e+01
3.931167787111370160e+01
3.931167787165461647e+01
3.931167787216364928e+01
3.931167787263380120e+01
3.931167787305778205e+01
3.931167787342806719e+01
3.931167787373682643e+01
3.931167787397598801e+01
3.931167787413718173e+01
3.931167787421180293e+01
3.931167787419094850e+01
3.931167787406545244e+01
3.931167787382589296e+01
3.931167787346316800e+01
3.931167787303872529e+01
3.931167787260076807e+01
3.931167787215240850e+01
3.931167787169661665e+01
3.931167787123625601e+01
3.931167787077404085e+01
3.931167787031256466e+01
3.931167786985429302e+01
3.931167786940155651e+01
3.931167786895656491e+01
3.931167786852138590e+01
3.931167786809798770e+01
3.931167786768816796e+01
3.931167786729363200e+01
3.931167786691593591e+01
3.931167786655651497e+01
3.931167786621666949e+01
3.931167786589757895e+01
3.931167786560028787e+01
3.931167786532571284e+01
3.931167786507464967e+01
3.931167786484774496e+01
3.931167786464554581e+01
3.931167786446844303e+01
3.931167786431671374e+01
3.931167786419050003e+01
3.931167786408982323e+01
3.931167786401456965e+01
3.931167786396449060e+01
3.931167786393922370e+01
3.931167786393826447e+01
3.931167786396098762e+01
3.931167786400663289e+01
3.931167786407431208e+01
3.931167786416301624e+01
3.931167786427160138e+01
3.931167786439879563e+01
3.931167786454319213e+01
3.931167786470326320e+01
3.931167786487735327e+01
3.931167786506366468e+01
3.931167786526029317e+01
3.931167786546518528e+01
3.931167786567617384e+01
3.931167786589094959e+01
3.931167786610708248e+01
3.931167786632200745e+01
3.931167786653303864e+01
3.931167786673736231e+01
3.931167786693202260e+01
3.931167786711394996e+01
3.931167786727993274e+01
3.931167786742663850e+01
3.931167786755061400e+01
3.931167786764825678e+01
3.931167786771585071e+01
3.931167786774954465e+01
3.931167786774536665e+01
3.931167786769920269e+01
3.931167786760681793e+01
