0.000000000000000000e+00
0.000000000000000000e+00
4.519593974004428895e-03
8.805758663601030364e-03
1.286981242238382887e-02
1.672269562178071295e-02
2.037338952045936180e-02
2.383058995547608638e-02
2.710274923258237934e-02
3.019807612622494447e-02
3.312453587954566209e-02
3.588985020438158896e-02
3.850149728126498611e-02
4.096671175942331183e-02
4.329248475677918012e-02
4.548556385995044388e-02
4.755245312425010473e-02
4.949941307368636162e-02
5.133246070096262464e-02
5.305755338582374830e-02
5.468046863060233020e-02
5.620529006764202890e-02
5.763588043433495733e-02
5.897603317958526048e-02
6.022947246380914998e-02
6.139985315893489726e-02
6.249076084840281264e-02
6.350571182716527319e-02
6.444815310168668099e-02
6.532146238994354648e-02
6.612894812142437739e-02
6.687384943712976204e-02
6.755933618957232767e-02
6.818850894277678210e-02
6.876439897227987208e-02
6.928996826513036944e-02
6.976810951988914045e-02
7.020164614662907643e-02
7.059333226693514929e-02
7.094584862933338287e-02
7.126122589779983196e-02
7.154071731468322759e-02
7.178559675235797466e-02
7.199712944682751248e-02
7.217657199772439802e-02
7.232517236831025043e-02
7.244416988547577874e-02
7.253479523974075416e-02
7.259827048525405169e-02
7.263580903979360848e-02
7.264861568476646547e-02
7.263788656520871190e-02
7.260480918978554077e-02
7.255056243079123501e-02
7.247631652414911196e-02
7.238323306941162050e-02
7.227246502976025777e-02
7.214515673200561086e-02
7.200244386658737061e-02
7.184545348757426231e-02
7.167530401266412887e-02
7.149310522318388927e-02
7.129995826408951076e-02
7.109695564396607825e-02
7.088501375469481725e-02
7.066406997297317027e-02
7.043431639828795499e-02
7.019603215008990427e-02
6.994950137810464208e-02
6.969501326233253080e-02
6.943286201304881000e-02
6.916334687080349930e-02
6.888677210642144000e-02
6.860344702100228120e-02
6.831368594592050758e-02
6.801780824282539772e-02
6.771613830364103803e-02
6.740900555056636434e-02
6.709674443607507865e-02
6.677969444291574630e-02
6.645820008411169877e-02
6.613261090296113087e-02
6.580328147303700359e-02
6.547057139818711347e-02
6.513484531253409260e-02
6.479647288047536702e-02
6.445582879668315668e-02
6.411329278610451710e-02
6.376924960396132547e-02
6.342408903575026680e-02
6.307820589724283389e-02
6.273200003448534123e-02
6.238587632379889725e-02
6.204021406003479289e-02
6.169472350263789651e-02
6.134920460990089114e-02
6.100364919779287243e-02
6.065805399254167729e-02
6.031242063063393249e-02
5.996675565881497832e-02
5.962107053408895879e-02
5.927538162371873837e-02
5.892971020522595055e-02
5.858408246639101868e-02
5.823852950525307964e-02
5.789308733011005320e-02
5.754779685951860735e-02
5.720270392229417217e-02
5.685785925751094677e-02
5.651331851450187155e-02
5.616914225285865592e-02
5.582539594243175751e-02
5.548214996333039606e-02
5.513947960592256725e-02
5.479746507083500112e-02
5.445619146895319673e-02
5.411574882142140830e-02
5.377623205964264519e-02
5.343774102527868580e-02
5.310038047025006369e-02
5.276426005673606756e-02
5.242949435717474127e-02
5.209620285426288383e-02
5.176450994095607716e-02
5.143454492046862364e-02
5.110644200627362244e-02
5.078034032210290011e-02
5.045638390194705225e-02
5.013472169005545043e-02
4.981550544892444921e-02
4.949844922609494130e-02
4.918323744553446814e-02
4.886983014787275176e-02
4.855818949824325381e-02
4.824827978628315472e-02
4.794006742613335370e-02
4.763352095643847567e-02
4.732861104034686434e-02
4.702531046551059607e-02
4.672359414408546602e-02
4.642343911273098117e-02
4.612482453261039506e-02
4.582773168939065223e-02
4.553214399324245071e-02
4.523804697884020731e-02
4.494542830536203681e-02
4.465427775648980052e-02
4.436458724040907159e-02
4.407635078980916277e-02
4.378956456188309171e-02
4.350422683832760179e-02
4.322033802534316904e-02
4.293790065363397440e-02
4.265691937840794534e-02
4.237740097937672118e-02
4.209935436075566001e-02
4.182279055126383871e-02
4.154772270412408069e-02
4.127416609706290734e-02
4.100213813231057269e-02
4.073165833660105650e-02
4.046274836117205731e-02
4.019543198176499244e-02
3.992973509862502574e-02
3.966568573650099822e-02
3.940331404464551823e-02
3.914265229681491293e-02
3.888373489126920046e-02
3.862659835077215248e-02
3.837128132259123858e-02
3.811782457849767491e-02
3.786627101476640334e-02
3.761666565217606367e-02
3.736905563600903535e-02
3.712349023605140963e-02
3.687986440542715544e-02
3.663791138509272377e-02
3.639760170030664765e-02
3.615891140354659389e-02
3.592181722569015578e-02
3.568629657601491562e-02
3.545232754219844462e-02
3.521988889031824055e-02
3.498896006485181787e-02
3.475952118867663837e-02
3.453155306307014588e-02
3.430503716770975237e-02
3.407995566067283100e-02
3.385629137843675085e-02
3.363402783587882139e-02
3.341314922627634104e-02
3.319364042130660414e-02
3.297548697104681764e-02
3.275867510397421217e-02
3.254319172696597262e-02
3.232902442529924508e-02
3.211616146265116462e-02
3.190459178109882055e-02
3.169430500111928423e-02
3.148529142158961597e-02
3.127754201978679566e-02
3.107104845138783725e-02
3.086580305046968120e-02
3.066179882950925348e-02
3.045902947938346900e-02
3.025748936936917960e-02
3.005717354714324344e-02
2.985807773878245905e-02
2.966019834876362435e-02
2.946353245996349152e-02
2.926807783365878435e-02
2.907383290952621907e-02
2.888079680564244536e-02
2.868896931848412268e-02
2.849835092292786129e-02
2.830894277225023958e-02
2.812074669812783187e-02
2.793376521063715284e-02
2.774800149825470963e-02
2.756345942785697750e-02
2.738014354472038600e-02
2.719805907252137445e-02
2.701721191333630867e-02
2.683760864764155735e-02
2.665925653431345382e-02
2.648216351062829266e-02
2.630633819226235390e-02
2.613178987329187533e-02
2.595852852619307330e-02
2.578656480184214617e-02
2.561591002951524310e-02
2.544657621688850568e-02
2.527857605003802632e-02
2.511192249319226660e-02
2.494653402973755901e-02
2.478232982050544014e-02
2.461929298359463725e-02
2.445740697263347474e-02
2.429665557677994706e-02
2.413702292072167702e-02
2.397849346467590889e-02
2.382105200438955350e-02
2.366468367113912577e-02
2.350937393173080370e-02
2.335510858850040061e-02
2.320187377931334782e-02
2.304965597756473972e-02
2.289844199217928172e-02
2.274821896761133541e-02
2.259897438384490115e-02
2.245069605639360075e-02
2.230337213630070869e-02
2.215699111013912440e-02
2.201154180001139299e-02
2.186701336354969841e-02
2.172339529391585297e-02
2.158067741980131821e-02
2.143884990542718055e-02
2.129790325054417219e-02
2.115782829043266408e-02
2.101861619590265212e-02
2.088025847329378834e-02
2.074274696447533928e-02
2.060607384684623108e-02
2.047023163333502177e-02
2.033521317239989079e-02
2.020101164802867721e-02
2.006762057973884156e-02
1.993503382257748313e-02
1.980324556712135739e-02
1.967225033947682736e-02
1.954204300127991914e-02
1.941261874969627335e-02
1.928397311742119369e-02
1.915610197267960182e-02
1.902900151922606170e-02
1.890266829634477952e-02
1.877709917884958640e-02
1.865229137708396961e-02
1.852824243692104481e-02
1.840495023976354907e-02
1.828241300254388954e-02
1.816062927772408089e-02
1.803959795329579049e-02
1.791931825278032103e-02
1.779978973522861052e-02
1.768101229522123577e-02
1.756298616286840544e-02
1.744571190380997394e-02
1.732919041921543446e-02
1.721342294578390164e-02
1.709841105574414974e-02
1.698415665685456752e-02
1.687066199240319989e-02
1.675792964120772707e-02
1.664596251761545076e-02
1.653476387150332183e-02
1.642433728827793343e-02
1.631468668887550016e-02
1.620581632976190317e-02
1.609773080293261729e-02
1.599043503591279780e-02
1.588393429175720753e-02
1.577823416905026199e-02
1.567334060190601203e-02
1.556925985996813859e-02
1.546599854840997185e-02
1.536356360793446341e-02
1.526196231477421582e-02
1.516120228069146869e-02
1.506129145297809002e-02
1.496223811445559181e-02
1.486405088347511963e-02
1.476669595672966233e-02
1.467010582654145606e-02
1.457426230729869793e-02
1.447914804861243597e-02
1.438474615539367570e-02
1.429104018785340088e-02
1.419801416150255971e-02
1.410565254715206301e-02
1.401394027091279991e-02
1.392286271419561003e-02
1.383240571371131995e-02
1.374255556147071199e-02
1.365329900478454497e-02
1.356462324626352828e-02
1.347651594381835821e-02
1.338896521065968681e-02
1.330195961529814265e-02
1.321548818154432044e-02
1.312954038850876713e-02
1.304410617060201838e-02
1.295917591753456555e-02
1.287474047431687134e-02
1.279079114125937326e-02
1.270731967397245761e-02
1.262431828336649242e-02
1.254177963565181533e-02
1.245969685233872144e-02
1.237806351023748759e-02
1.229687364145833940e-02
1.221612173341148425e-02
1.213580272880709562e-02
1.205591202565530970e-02
1.197644547726623918e-02
1.189739939224995074e-02
1.181877053451648937e-02
1.174055612327586443e-02
1.166275383303805313e-02
1.158536179361300752e-02
1.150837859011062843e-02
1.143180326294080361e-02
1.135563530781337829e-02
1.127987467573816904e-02
1.120452177302496549e-02
1.112957746128350953e-02
1.105504305742352131e-02
1.098092033365469233e-02
1.090721151748667156e-02
1.083391929172908968e-02
1.076104679449152446e-02
1.068859761918353884e-02
1.061657581451465673e-02
1.054498588449437335e-02
1.047383278843214832e-02
1.040312194093740567e-02
1.033285921191954421e-02
1.026305092658792543e-02
1.019370386545188217e-02
1.012482526432071685e-02
1.005642281430368587e-02
9.988504661810029134e-03
9.921079408548947459e-03
9.854156111529609532e-03
9.787744283061157111e-03
9.721853890752689409e-03
9.656495357513280448e-03
9.591679561551966909e-03
9.527417836377762017e-03
9.463721970799641656e-03
9.400604208926542638e-03
9.338077250167380050e-03
9.276154249231033377e-03
9.214848816126343031e-03
9.154175016162129433e-03
9.094147369947173931e-03
9.034780853390220537e-03
8.976066895630871109e-03
8.917912511348425469e-03
8.860289012224721594e-03
8.803176634668674616e-03
8.746556188143796498e-03
8.690409055168232463e-03
8.634717191314736709e-03
8.579463125210677610e-03
8.524629958538044658e-03
8.470201366033429380e-03
8.416161595488049624e-03
8.362495467747737415e-03
8.309188376712937224e-03
8.256226289338714636e-03
8.203595745634735537e-03
8.151283858665295604e-03
8.099278314549301222e-03
8.047567372460274690e-03
7.996139864626354218e-03
7.944985196330286992e-03
7.894093345909441312e-03
7.843454864755801392e-03
7.793060877315963024e-03
7.742903081091143114e-03
7.692973746637163206e-03
7.643265717564469430e-03
7.593772410538119494e-03
7.544487815277787016e-03
7.495406494557764997e-03
7.446523584206949341e-03
7.397834793108864007e-03
7.349336403201641929e-03
7.301025269478033687e-03
7.252898819985406642e-03
7.204955055825734526e-03
7.157192551155615659e-03
7.109610453186259935e-03
7.062208482183494895e-03
7.014986931467761394e-03
6.967946667414112727e-03
6.921089129452219837e-03
6.874416330066371317e-03
6.827930854795468199e-03
6.781635862233029166e-03
6.735535084027183608e-03
6.689632824880678563e-03
6.643933962550876982e-03
6.598443947849755992e-03
6.553168804643914706e-03
6.508115129854552539e-03
6.463290093457495222e-03
6.418701438483183537e-03
6.374357481016668971e-03
6.330267110197624128e-03
6.286439788220328853e-03
6.242885550333683239e-03
6.199615004841203293e-03
6.156639333101017464e-03
6.113970289525875318e-03
6.071620201583130191e-03
6.029601969794759139e-03
5.987929067737355129e-03
5.946615542042120971e-03
5.905676012394884059e-03
5.865125671536073823e-03
5.824980285260742546e-03
5.785256192418558423e-03
5.745970304913803825e-03
5.707140107705377906e-03
5.668783658806787057e-03
5.630919589286163124e-03
5.593567103266245191e-03
5.556745977924395195e-03
5.520476563492585781e-03
5.484779783257402036e-03
5.449660078590105178e-03
5.414895742526695810e-03
5.380403696604541160e-03
5.346173071158677979e-03
5.312193405762385273e-03
5.278454649227206849e-03
5.244947159602933971e-03
5.211661704177611432e-03
5.178589459477539285e-03
5.145722011267263307e-03
5.113051354549589742e-03
5.080569893565574022e-03
5.048270441794526844e-03
5.016146221954011566e-03
4.984190865999838134e-03
4.952398415126077827e-03
4.920763319765051116e-03
4.889280439587331134e-03
4.857945043501746274e-03
4.826752809655372387e-03
4.795699825433542320e-03
4.764782587459843316e-03
4.733998001596110942e-03
4.703343382942440365e-03
4.672816455837169002e-03
4.642415353856896472e-03
4.612138619816471587e-03
4.581985205768997552e-03
4.551954473005831101e-03
4.522046192056575556e-03
4.492260542689093840e-03
4.462598113909501535e-03
4.433059903962162547e-03
4.403647320329700382e-03
4.374362179732981665e-03
4.345206708131136089e-03
4.316183540721539071e-03
4.287295721939823022e-03
4.258546705459873016e-03
4.229940354193822451e-03
4.201480940292062587e-03
4.173173145143235611e-03
4.145022059374237240e-03
4.117033182850216716e-03
4.089212424674573340e-03
4.061566103188959942e-03
4.034100945973284613e-03
4.006824089845708106e-03
3.979743080862642966e-03
3.952865874318752665e-03
3.926200834746955068e-03
3.899756735918423305e-03
3.873542760842580129e-03
3.847568501767105291e-03
3.821843960177924264e-03
3.796379546799220385e-03
3.771186081593430953e-03
3.746274793761243324e-03
3.721657321741600119e-03
3.697345713211692714e-03
3.673344620745341241e-03
3.649553576815397354e-03
3.625934765770265703e-03
3.602483795455380892e-03
3.579196423589990107e-03
3.556068557767162221e-03
3.533096255453780418e-03
3.510275723990545667e-03
3.487603320591977155e-03
3.465075552346406646e-03
3.442689076215987160e-03
3.420440699036686460e-03
3.398327377518290532e-03
3.376346218244402706e-03
3.354494477672438895e-03
3.332769562133636697e-03
3.311169027833049325e-03
3.289690580849546041e-03
3.268332077135815191e-03
3.247091522518357268e-03
3.225967072697494449e-03
3.204957033247364528e-03
3.184059859615920481e-03
3.163274157124936533e-03
3.142598680969996457e-03
3.122032336220507444e-03
3.101574177819691434e-03
3.081223410584586417e-03
3.060979389206050765e-03
3.040841618248753264e-03
3.020809752151184819e-03
3.000883595225652383e-03
2.981063101658278525e-03
2.961348375509005332e-03
2.941739670711587037e-03
2.922237391073599123e-03
2.902842090276432259e-03
2.883554471875294459e-03
2.864375389299211091e-03
2.845305845851021833e-03
2.826346994707386318e-03
2.807500138918779357e-03
2.788766731409494416e-03
2.770148374977641006e-03
2.751646822295142954e-03
2.733263975907744472e-03
2.715001888235005385e-03
2.696862761570302872e-03
2.678848948080831457e-03
2.660962949807599547e-03
2.643207418665435501e-03
2.625585156442984160e-03
2.608099114802706411e-03
2.590752395280881797e-03
2.573548249287603302e-03
2.556490078106783866e-03
2.539581432896152909e-03
2.522826014687254599e-03
2.506227674385455226e-03
2.489790412769929753e-03
2.473516285963481883e-03
2.457378072907985718e-03
2.441363825544180539e-03
2.425470556881392445e-03
2.409695363331553104e-03
2.394035424709204524e-03
2.378488004231498181e-03
2.363050448518191557e-03
2.347720187591653337e-03
2.332494734876856476e-03
2.317371687201386001e-03
2.302348724795433375e-03
2.287423611291799531e-03
2.272594193725894877e-03
2.257858402535733652e-03
2.243214251561943470e-03
2.228659838047757948e-03
2.214193342639018871e-03
2.199813029384179233e-03
2.185517245734295427e-03
2.171304422543036353e-03
2.157173074066677781e-03
2.143121797964104517e-03
2.129149275296809540e-03
2.115254270528892262e-03
2.101435631527063738e-03
2.087692289560641457e-03
2.074023259301551510e-03
2.060427638824329465e-03
2.046904609606116886e-03
2.033453436526665679e-03
2.020073467868335922e-03
2.006764135316095859e-03
1.993524953957523209e-03
1.980355522282799957e-03
1.967255522184721897e-03
1.954224718958689957e-03
1.941262961302714536e-03
1.928370181317414639e-03
1.915546394506015705e-03
1.902791699774353945e-03
1.890106279430872876e-03
1.877490399186624399e-03
1.864944408155270105e-03
1.852468738853076721e-03
1.840063907198922610e-03
1.827730512514293441e-03
1.815469237523282837e-03
1.803280848352594324e-03
1.791166194531536998e-03
1.779126208992030077e-03
1.767161908068602249e-03
1.755274391498388206e-03
1.743464842421133844e-03
1.731734527379190196e-03
1.720084796317518632e-03
1.708517082583689128e-03
1.697032902927878961e-03
1.685633857502875314e-03
1.674321629864070722e-03
1.663097986969471094e-03
1.651964779179686173e-03
1.640923940257934090e-03
1.629977487370046132e-03
1.619127521084455686e-03
1.608376225372210814e-03
1.597725867606963413e-03
1.587178798564973549e-03
1.576737452425113796e-03
1.566404346768859911e-03
1.556182082580302110e-03
1.546068151070010936e-03
1.536053023132347931e-03
1.526132911898202054e-03
1.516304231935037151e-03
1.506563496950705889e-03
1.496907319793439354e-03
1.487332412451851599e-03
1.477835586054942899e-03
1.468413750872091944e-03
1.459063916313064514e-03
1.449783190928005889e-03
1.440568782407443882e-03
1.431417997582293180e-03
1.422328242423845802e-03
1.413297022043781504e-03
1.404321940694159762e-03
1.395400701767422150e-03
1.386531107796397117e-03
1.377711060454290658e-03
1.368938560554696943e-03
1.360211708051588557e-03
1.351528702039321485e-03
1.342887840752637939e-03
1.334287521566657675e-03
1.325726240996888839e-03
1.317202594699218212e-03
1.308715277469915325e-03
1.300263083245636365e-03
1.291844905103415502e-03
1.283459735260673992e-03
1.275106665075213027e-03
1.266784885045215900e-03
1.258493684809252559e-03
1.250232453146270933e-03
1.242000677975607127e-03
1.233797946356975008e-03
1.225623944490472714e-03
1.217478457716583739e-03
1.209361370516170205e-03
1.201272666510481112e-03
1.193212428461145388e-03
1.185180838270174716e-03
1.177178176979966351e-03
1.169204824773296177e-03
1.161261260973327604e-03
1.153348064043603106e-03
1.145465911588048344e-03
1.137615580350974549e-03
1.129797946217071369e-03
1.122013984211416189e-03
1.114264768499465680e-03
1.106551472387058829e-03
1.098875368320421063e-03
1.091237827886156007e-03
1.083640321811255242e-03
1.076084419963088549e-03
1.068571791349409543e-03
1.061104204118356979e-03
1.053683525558449111e-03
1.046311722098590413e-03
1.038990859308065728e-03
1.031723101896541567e-03
1.024510713714071528e-03
1.017356057751087409e-03
1.010261596138407013e-03
1.003229890147229377e-03
9.962636001891356403e-04
9.893654858160925124e-04
9.825384057204457691e-04
9.757853177349276250e-04
9.691092788326506613e-04
9.625134451271096696e-04
9.560010718721854463e-04
9.495755134621381788e-04
9.432402234316134091e-04
9.369987544556376965e-04
9.308547583496199190e-04
9.248119860693549592e-04
9.188742877110161154e-04
9.130423133299925709e-04
9.072768797948834764e-04
9.015633619606555410e-04
8.958990664065960650e-04
8.902813986254896417e-04
8.847078630236252048e-04
8.791760629207899568e-04
8.736837005502721878e-04
8.682285770588633357e-04
8.628085925068524568e-04
8.574217458680330559e-04
8.520661350296966901e-04
8.467399567926360039e-04
8.414415068711468982e-04
8.361691798930230004e-04
8.309214693995620616e-04
8.256969678455601015e-04
8.204943665993142277e-04
8.153124559426248039e-04
8.101501250707898120e-04
8.050063620926113574e-04
7.998802540303900314e-04
7.947709868199274042e-04
7.896778453105279772e-04
7.846002132649945206e-04
7.795375733596332773e-04
7.744895071842494098e-04
7.694556952421488429e-04
7.644359169501407578e-04
7.594300506385319536e-04
7.544380735511333532e-04
7.494600618452543651e-04
7.444961905917055938e-04
7.395467337748003580e-04
7.346120642923501367e-04
7.296926539556700987e-04
7.247890734895735734e-04
7.199019925323775796e-04
7.150321796358975138e-04
7.101805022654504021e-04
7.053479267998556592e-04
7.005355185314309690e-04
6.957444416659977048e-04
6.909759593228760512e-04
6.862314335348870635e-04
6.815123252483547278e-04
6.768201943231012992e-04
6.721566995324523971e-04
6.675235985632326690e-04
6.629227480157676329e-04
6.583561034038858464e-04
6.538257191549135938e-04
6.493337486096811741e-04
6.448824440225178062e-04
6.404741565612531457e-04
6.361113363072201047e-04
6.317965322552498639e-04
6.275323923136768602e-04
6.233216633043344498e-04
6.191671909625572935e-04
6.150719199371823325e-04
6.110388937905453189e-04
6.070712549984850440e-04
6.031709925344094650e-04
5.993140946171548111e-04
5.954892326874084481e-04
5.916950894474320381e-04
5.879303943030914428e-04
5.841939233638524962e-04
5.804844994427833891e-04
5.768009920565552113e-04
5.731423174254394581e-04
5.695074384733111745e-04
5.658953648276459194e-04
5.623051528195212832e-04
5.587359054836179726e-04
5.551867725582168827e-04
5.516569504852025666e-04
5.481456824100601997e-04
5.446522581818767725e-04
5.411760143533426081e-04
5.377163341807480014e-04
5.342726476239871222e-04
5.308444313465546542e-04
5.274312087155470959e-04
5.240325498016641702e-04
5.206480713792058972e-04
5.172774369260757380e-04
5.139203566237779928e-04
5.105765873574186686e-04
5.072459327157069963e-04
5.039282429909523959e-04
5.006234151790681618e-04
4.973313929795677773e-04
4.940521667955668659e-04
4.907857737337842753e-04
4.875322976045388251e-04
4.842918689217533181e-04
4.810646649029508000e-04
4.778509094692563481e-04
4.746508732453984269e-04
4.714648735597053099e-04
4.682932744441092540e-04
4.651364866341429214e-04
4.619949675689408435e-04
4.588692213912409388e-04
4.557597989473811517e-04
4.526672977873030302e-04
4.495923621645489619e-04
4.465356830362629320e-04
4.434979980631923672e-04
4.404800916096846116e-04
4.374827947436909928e-04
4.345069852367630810e-04
4.315535875640545867e-04
4.286235729043223362e-04
4.257179591399233446e-04
4.228378108568182307e-04
4.199842393445682356e-04
4.171584025963366322e-04
4.143615053088895925e-04
4.115947988825938023e-04
4.088595814214192803e-04
4.061571977329367757e-04
4.034890393283191781e-04
4.008565444223420593e-04
3.982610098464202972e-04
3.956953833565368889e-04
3.931546507354673529e-04
3.906377458950810997e-04
3.881436350196141227e-04
3.856713165656666122e-04
3.832198212622057749e-04
3.807882121105633398e-04
3.783755843844368054e-04
3.759810656298900899e-04
3.736038156653515257e-04
3.712430265816162988e-04
3.688979227418442259e-04
3.665677607815607305e-04
3.642518296086579271e-04
3.619494504033920188e-04
3.596599766183863336e-04
3.573827939786287759e-04
3.551173204814726944e-04
3.528630063966382369e-04
3.506193342662098028e-04
3.483858189046385909e-04
3.461620073987405934e-04
3.439474791076972465e-04
3.417418456630566233e-04
3.395447509687312651e-04
3.373558712010003499e-04
3.351749148085079576e-04
3.330016225122635581e-04
3.308357673056432579e-04
3.286771544543875233e-04
3.265256214966037827e-04
3.243810382427639869e-04
3.222433067757056934e-04
3.201123614506330424e-04
3.179881688951145878e-04
3.158707280090857373e-04
3.137600699648463668e-04
3.116562582070623384e-04
3.095593884527656631e-04
3.074695886913529825e-04
3.053870191845876837e-04
3.033118724665977844e-04
3.012443733438770178e-04
2.991847788952855906e-04
2.971333784720480700e-04
2.950904936977559847e-04
2.930564784683653318e-04
2.910317189521978778e-04
2.890166335899419176e-04
2.870116730946499972e-04
2.850173204517416790e-04
2.830340909190010479e-04
2.810625320265779581e-04
2.791032235769885209e-04
2.771567776451135871e-04
2.752238385782005358e-04
2.733050829958617021e-04
2.714012197900747569e-04
2.695129901251840619e-04
2.676411674378983930e-04
2.657865574372931627e-04
2.639499981048086313e-04
2.621323596942508284e-04
2.603345447317918782e-04
2.585574880159686442e-04
2.568021566176846267e-04
2.550695498802081195e-04
2.533606994191731857e-04
2.516766691225799830e-04
2.500185551507934627e-04
2.483874859365449959e-04
2.467846221849311810e-04
2.452110313698343093e-04
2.436647716463201819e-04
2.421435605800987005e-04
2.406458153403020529e-04
2.391699984721208064e-04
2.377146178968045582e-04
2.362782269116625318e-04
2.348594241900621676e-04
2.334568537814307222e-04
2.320692051112539127e-04
2.306952129810764052e-04
2.293336575685025460e-04
2.279833644271949257e-04
2.266432044868758693e-04
2.253120940533262170e-04
2.239889948083857577e-04
2.226729138099539608e-04
2.213629034919884853e-04
2.200580616645067794e-04
2.187575315135848061e-04
2.174605016013575042e-04
2.161662058660193848e-04
2.148739236218232570e-04
2.135829795590817189e-04
2.122927437441657751e-04
2.110026316195055146e-04
2.097121040035905440e-04
2.084206670909687954e-04
2.071278724522479628e-04
2.058333170340941737e-04
2.045366431592326127e-04
2.032375385264480368e-04
2.019357362105834736e-04
2.006310146625417130e-04
1.993231977092840054e-04
1.980121545538306583e-04
1.966977997752614974e-04
1.953800933287147003e-04
1.940590405453881799e-04
1.927346921325382822e-04
1.914071441734803837e-04
1.900765381275895140e-04
1.887430608302989197e-04
1.874069444931015550e-04
1.860684667035489705e-04
1.847279504252516652e-04
1.833857639978796563e-04
1.820423211371613947e-04
1.806980809348850115e-04
1.793535478588970176e-04
1.780092717531031436e-04
1.766658478374684752e-04
1.753239167080165861e-04
1.739841643368306493e-04
1.726473220720524068e-04
1.713141666378825765e-04
1.699855201345815028e-04
1.686622500384677196e-04
1.673452692019196039e-04
1.660355358533740209e-04
1.647340535973267300e-04
1.634418714143331985e-04
1.621600836610071644e-04
1.608898300700219923e-04
1.596322957501097243e-04
1.583887111860612159e-04
1.571603522387270840e-04
1.559485401450161086e-04
1.547546415178968583e-04
1.535800683463963627e-04
1.524262779956007626e-04
1.512947732066556084e-04
1.501871020967648570e-04
1.491048581591922272e-04
1.480496802632598713e-04
1.470232526543489176e-04
1.460273049539001478e-04
1.450636121594126959e-04
1.441339946444451597e-04
1.432403181586149499e-04
1.423844938275983720e-04
1.415624482826010331e-04
1.407566837056056861e-04
1.399646335566195649e-04
1.391848992741810957e-04
1.384161349926706173e-04
1.376570475423107324e-04
1.369063964491653597e-04
1.361629939351408720e-04
1.354257049179850934e-04
1.346934470112877598e-04
1.339651905244808989e-04
1.332399584628378268e-04
1.325168265274743139e-04
1.317949231153476360e-04
1.310734293192569266e-04
1.303515789278435568e-04
1.296286584255903487e-04
1.289040069928224159e-04
1.281770165057064318e-04
1.274471315362510088e-04
1.267138493523068885e-04
1.259767199175662903e-04
1.252353458915637257e-04
1.244893826296753468e-04
1.237385381831191094e-04
1.229825732989551525e-04
1.222213014200851475e-04
1.214545886852530439e-04
1.206823539290443101e-04
1.199045686818863674e-04
1.191212571700487791e-04
1.183324963156425874e-04
1.175384157366211662e-04
1.167391977467794088e-04
1.159350773557541066e-04
1.151263422690242480e-04
1.143133328879103130e-04
1.134964423095750598e-04
1.126761163270227791e-04
1.118528534290997006e-04
1.110272048004942236e-04
1.101997743217362124e-04
1.093712185691978091e-04
1.085422468150927831e-04
1.077136210274767076e-04
1.068861558702474473e-04
1.060607187031442096e-04
1.052382295817486156e-04
1.044196612574838052e-04
1.036060391776147762e-04
1.027984414852487502e-04
1.019979990193344406e-04
1.012058953146627847e-04
1.004233666018663877e-04
9.965170180741963145e-05
9.889224255363917573e-05
9.814638315868309088e-05
9.741557063655179299e-05
9.670130469708720358e-05
9.600513774597318334e-05
9.532867488473577603e-05
9.467357391074250378e-05
9.404154531720312600e-05
9.343435229316900245e-05
9.285381072353341846e-05
9.230118016735222467e-05
9.176368535963806933e-05
9.123491564768016924e-05
9.071404952045828980e-05
9.020029581014643507e-05
8.969289369211306466e-05
8.919111268492055161e-05
8.869425265032580580e-05
8.820164379327973187e-05
8.771264666192750024e-05
8.722665214760866911e-05
8.674308148485679142e-05
8.626138625139990275e-05
8.578104836816006053e-05
8.530158009925356089e-05
8.482252405199112836e-05
8.434345317687745515e-05
8.386397076761168898e-05
8.338371046108708072e-05
8.290233623739102511e-05
8.241954241980541302e-05
8.193505367480606236e-05
8.144862501206330074e-05
8.096004178444146410e-05
8.046911968799914060e-05
7.997570476198934684e-05
7.947967338885902639e-05
7.898093229424965969e-05
7.847941854699674901e-05
7.797509955912999466e-05
7.746797308587357960e-05
7.695806722564557309e-05
7.644544042005860837e-05
7.593018145391932695e-05
7.541240945522856840e-05
7.489227389518165491e-05
7.436995458816780856e-05
7.384566169177081538e-05
7.331963570676844257e-05
7.279214747713266896e-05
7.226349819002995598e-05
7.173401937582070560e-05
7.120407290805980246e-05
7.067405100349618012e-05
7.014437622207295663e-05
6.961550146692774624e-05
6.908790998439207662e-05
6.856211536399197163e-05
6.803866153844751765e-05
6.751812278367298552e-05
6.700110371877711520e-05
6.648823930606257359e-05
6.598019485102655092e-05
6.547766600236027280e-05
6.498137875194912223e-05
6.449208943487301905e-05
6.401058472940575588e-05
6.353768165701564863e-05
6.307422758236510283e-05
6.262110021331062715e-05
6.217920760090326715e-05
6.174948813938798179e-05
6.133291056620423978e-05
6.093047396198553167e-05
6.054320775055960029e-05
6.017217169894854232e-05
5.981582836746053865e-05
5.946874443696366618e-05
5.912998372500302967e-05
5.879879686043821191e-05
5.847445887064040167e-05
5.815626918149206846e-05
5.784355161738732165e-05
5.753565440123160554e-05
5.723195015444182133e-05
5.693183589694645588e-05
5.663473304718530388e-05
5.634008742210977954e-05
5.604736923718263880e-05
5.575607310637809450e-05
5.546571804218194512e-05
5.517584745559129698e-05
5.488602915611488271e-05
5.459585535177275632e-05
5.430494264909645582e-05
5.401293205312909134e-05
5.371948896742508083e-05
5.342430319405045498e-05
5.312708893358259301e-05
5.282758478511033777e-05
5.252555374623411779e-05
5.222078321306564911e-05
5.191308498022828761e-05
5.160229524085673089e-05
5.128827458659711991e-05
5.097090800760720159e-05
5.065010489255600360e-05
5.032579902862419346e-05
4.999794860150377361e-05
4.966653619539820343e-05
4.933156879302253470e-05
4.899307777560311347e-05
4.865111892287792570e-05
4.830577241309627189e-05
4.795714282301892983e-05
4.760535912791826970e-05
4.725057470157793566e-05
4.689296731629323203e-05
4.653273914287077775e-05
4.617011675062865546e-05
4.580535110739654696e-05
4.543871757951541482e-05
4.507051593183786822e-05
4.470107032772783774e-05
4.433072932906070406e-05
4.395986589622350132e-05
4.358887738811446303e-05
4.321818556214353035e-05
4.284823657423194546e-05
4.247950097881240071e-05
4.211247372882922829e-05
4.174767417573798690e-05
4.138564606950593611e-05
4.102695755861160263e-05
4.067220119004503109e-05
4.032199390930783144e-05
3.997697706041288077e-05
3.963781638588474352e-05
3.930520202675931224e-05
3.897984852258386864e-05
3.866249481141736819e-05
3.835390422983001317e-05
3.805486451290365931e-05
3.776618779423149725e-05
3.748871060591816776e-05
3.722329387857989050e-05
3.697082294134422683e-05
3.673220752185030343e-05
3.650838174624862937e-05
3.630030413920116381e-05
3.610847309191666230e-05
3.593090305077330297e-05
3.576617189224948082e-05
3.561305261557515841e-05
3.547035485201741691e-05
3.533692486488055088e-05
3.521164554950589220e-05
3.509343643327200648e-05
3.498125367559451693e-05
3.487409006792620601e-05
3.477097503375701538e-05
3.467097462861397144e-05
3.457319154006130722e-05
3.447676508770032691e-05
3.438087122316948037e-05
3.428472253014439703e-05
3.418756822433777746e-05
3.408869415349951535e-05
3.398742279741660940e-05
3.388311326791317691e-05
3.377516130885052149e-05
3.366299929612701791e-05
3.354609623767824760e-05
3.342395777347687669e-05
3.329612617553268989e-05
3.316218034789268534e-05
3.302173582664089845e-05
3.287444477989859840e-05
3.271999600782411196e-05
3.255811494261291159e-05
3.238856364849766961e-05
3.221114082174809565e-05
3.202568179067113985e-05
3.183205851561079640e-05
3.163017958894821194e-05
3.141999023510173980e-05
3.120147231052677054e-05
3.097464430371591496e-05
3.073956133519886854e-05
3.049631515754242843e-05
3.024503415535064244e-05
2.998588334526455164e-05
2.971906437596247489e-05
2.944481552815976155e-05
2.916341171460888973e-05
2.887516448009958822e-05
2.858042200145855872e-05
2.827956908754982818e-05
2.797302717927438627e-05
2.766125434957040222e-05
2.734474530341328243e-05
2.702403137781540278e-05
2.669968054182646103e-05
2.637229739653313120e-05
2.604252317505925335e-05
2.571103574256591143e-05
2.537854959625115555e-05
2.504581586535035764e-05
2.471362231113587610e-05
2.438279332691720483e-05
2.405418993804112911e-05
2.372870980189136983e-05
2.340728720788895958e-05
2.309089307749195128e-05
2.278053496419555707e-05
2.247725705353204669e-05
2.218214016307108627e-05
2.189630174241921658e-05
2.162089587322020201e-05
2.135711326915493906e-05
2.110618127594138520e-05
2.086936387133482996e-05
2.064796166512754250e-05
2.044331189914893430e-05
2.025678844726558960e-05
2.008980181538118075e-05
1.994379914143660368e-05
1.982026419540983226e-05
1.972071737931595215e-05
1.964671572720722180e-05
1.959970163386769466e-05
1.956885557120574667e-05
1.954589994508796399e-05
1.952968289171933369e-05
1.951909560295681260e-05
1.951307232630932053e-05
1.951059036493774362e-05
1.951067007765493435e-05
1.951237487892571498e-05
1.951481123886687069e-05
1.951712868324715304e-05
1.951851979348728333e-05
1.951822020665994580e-05
1.951550861548979445e-05
1.950970676835344286e-05
1.950017946927948110e-05
1.948633457794846224e-05
1.946762300969289889e-05
1.944353873549728020e-05
1.941361878199805827e-05
1.937744323148363462e-05
1.933463522189441777e-05
1.928486094682274873e-05
1.922782965551294161e-05
1.916329365286128028e-05
1.909104829941599802e-05
1.901093201137734527e-05
1.892282626059749141e-05
1.882665557458058231e-05
1.872238753648273698e-05
1.861003278511199675e-05
1.848964501492848447e-05
1.836132097604418096e-05
1.822520047422306383e-05
1.808146637088108388e-05
1.793034458308611417e-05
1.777210408355811948e-05
1.760705690066890561e-05
1.743555811844228873e-05
1.725800587655404797e-05
1.707484137033187462e-05
1.688654885075558895e-05
1.669365562445682171e-05
1.649673205371921406e-05
1.629639155647838369e-05
1.609329060632185023e-05
1.588812873248927250e-05
1.568164851987211640e-05
1.547463560901384130e-05
1.526791869610991356e-05
1.506236953300767105e-05
1.485890292720661450e-05
1.465847674185803139e-05
1.446209189576522812e-05
1.427079236338349094e-05
1.408566517482000473e-05
1.390784041583408671e-05
1.373849122783686124e-05
1.357883380789147829e-05
1.343012740871303050e-05
1.329367433866857514e-05
1.317081996177722224e-05
1.306295269770994485e-05
1.297150402178972301e-05
1.289794846499148451e-05
1.284380361394214208e-05
1.280974051783577911e-05
1.278460855467012659e-05
1.276406858673488714e-05
1.274744224434522316e-05
1.273407669586358189e-05
1.272334464769971409e-05
1.271464434431064353e-05
1.270739956820069408e-05
1.270105963992147788e-05
1.269509941807189194e-05
1.268901929929813505e-05
1.268234521829368583e-05
1.267462864779931789e-05
1.266544659860309143e-05
1.265440161954035489e-05
1.264112179749376023e-05
1.262526075739323579e-05
1.260649766221600157e-05
1.258453721298657427e-05
1.255910964877674871e-05
1.252997074670562997e-05
1.249690182193959616e-05
1.245970972769232040e-05
1.241822685522476577e-05
1.237231113384517344e-05
1.232184603090911180e-05
1.226674055181940362e-05
1.220692924002617178e-05
1.214237217702682910e-05
1.207305498236606142e-05
1.199898881363590214e-05
1.192021036647561698e-05
1.183678187457178028e-05
1.174879110965825630e-05
1.165635138151617048e-05
1.155960153797402288e-05
1.145870596490752392e-05
1.135385458623969767e-05
1.124526286394085985e-05
1.113317179802858054e-05
1.101784792656782314e-05
1.089958332567073932e-05
1.077869560949680461e-05
1.065552793025278616e-05
1.053044897819270382e-05
1.040385298161797411e-05
1.027615970687720015e-05
1.014781445836630553e-05
1.001928807852850716e-05
9.891076947854278006e-06
9.763702984881486043e-06
9.637713646195175679e-06
9.513681926427733791e-06
9.392206358258818570e-06
9.273911012415364606e-06
9.159445497671676059e-06
9.049484960849258949e-06
8.944730086816944821e-06
8.845907098490845004e-06
8.753767756834354003e-06
8.669089360858208787e-06
8.592674747620371903e-06
8.525352292226126338e-06
8.467975907828034868e-06
8.421425045625953606e-06
8.386604694867055718e-06
8.363469010666093662e-06
8.347067318644199385e-06
8.336022386454834665e-06
8.329705294820591109e-06
8.327507822271199722e-06
8.328842445143513966e-06
8.333142337581528398e-06
8.339861371536373588e-06
8.348474116766311032e-06
8.358475840836733156e-06
8.369382509120171787e-06
8.380730784796293069e-06
8.392078028851895766e-06
8.403002300080912964e-06
8.413102355084408674e-06
8.421997648270584616e-06
8.429328331854778517e-06
8.434755255859459038e-06
8.437959968114229153e-06
8.438644714255827850e-06
8.436532437728125046e-06
8.431366779782128361e-06
8.422912079475979735e-06
8.410953373674946953e-06
8.395296397051447366e-06
8.375767582085020781e-06
8.352214059062344713e-06
8.324503656077229298e-06
8.292524899030610520e-06
8.256187011630585786e-06
8.215419915392361408e-06
8.170174229638283098e-06
8.120421271497837661e-06
8.066153055907619116e-06
8.007382295611413395e-06
7.944142401160088232e-06
7.876487480911662620e-06
7.804492341031288175e-06
7.728252485491233888e-06
7.647884116070958972e-06
7.563524132357002749e-06
7.475330131743053256e-06
7.383480409429930305e-06
7.288173958425569395e-06
7.189630469545113181e-06
7.088090331410764949e-06
6.983814630451881780e-06
6.877085150904961851e-06
6.768204374813598692e-06
6.657495482028617558e-06
6.545302350207886542e-06
6.431989554816438550e-06
6.317942369126435719e-06
6.203566764217147401e-06
6.089289408975073826e-06
5.975557670093746204e-06
5.862839612073865637e-06
5.751623997223274320e-06
5.642420285656911497e-06
5.535758635296935431e-06
5.432189901872565860e-06
5.332285638920164459e-06
5.236638097783245858e-06
5.145860227612428510e-06
5.060585675365521089e-06
4.981468785807437787e-06
4.909184601510194081e-06
4.844428862852983808e-06
4.787918008022089384e-06
4.740389173011013939e-06
4.702600191620297514e-06
4.675329595457666980e-06
4.659376613937966585e-06
4.655561174283176591e-06
4.664239280242462689e-06
4.683271507363785187e-06
4.711429851193104326e-06
4.747732784087411899e-06
4.791228611133765660e-06
4.840995470149234271e-06
4.896141331680976073e-06
4.955803999006186571e-06
5.019151108132115372e-06
5.085380127796081438e-06
5.153718359465397691e-06
5.223422937337485372e-06
5.293780828339798648e-06
5.364108832129841554e-06
5.433753581095190868e-06
5.502091540353413940e-06
5.568529007752190674e-06
5.632502113869230511e-06
5.693476822012295303e-06
5.750948928219214561e-06
5.804444061257819381e-06
5.853517682626041552e-06
5.897755086551848332e-06
5.936771399993257695e-06
5.970211582638349345e-06
5.997750426905223204e-06
6.019092557942062949e-06
6.033972433627091112e-06
6.042154344568583484e-06
6.043432414104865724e-06
6.037630598304313360e-06
6.024602685965355179e-06
6.004232298616474917e-06
5.976432890516193474e-06
5.941147748653107880e-06
5.898349992745846395e-06
5.848042575243095622e-06
5.790258281323588642e-06
5.725059728896099938e-06
5.652539368599496212e-06
5.572819483802661000e-06
5.486052190604531944e-06
5.392419437834099943e-06
5.292133007050384587e-06
5.185434512542532419e-06
5.072595401329667003e-06
4.953916953160987185e-06
4.829730280515742526e-06
4.700396328603200269e-06
4.566305875362778325e-06
4.427879531463848756e-06
4.285567740305864835e-06
4.139850778018341565e-06
3.991238753460782826e-06
3.840271608222880440e-06
3.687519116624268521e-06
3.533580885714642910e-06
3.379086355273776425e-06
3.224694797811433307e-06
3.071095318567571659e-06
2.919006855512060544e-06
2.769178179344868019e-06
2.622387893496015399e-06
2.479444434125534905e-06
2.341186070123627635e-06
2.208480903110420466e-06
2.082226867436162988e-06
1.963351730181090288e-06
1.852813091155535599e-06
1.751598382899930732e-06
1.660724870684651485e-06
1.581239652510228982e-06
1.514219659107138335e-06
1.460771653935976527e-06
1.422032233187418357e-06
1.399167825782114383e-06
1.393374693370825167e-06
1.405878930334320062e-06
1.437936463783459370e-06
1.490824358002760941e-06
1.557260859082647442e-06
1.629477179738727014e-06
1.706562669712051574e-06
1.787640589012703593e-06
1.871868107919703564e-06
1.958436306981147856e-06
2.046570177014116805e-06
2.135528619104699074e-06
2.224604444608015789e-06
2.313124375148118049e-06
2.400449042618142778e-06
2.485972989180206427e-06
2.569124667265433346e-06
2.649366439573979501e-06
2.726194579074936762e-06
2.799139269006475625e-06
2.867764602875749921e-06
2.931668584458919689e-06
2.990483127801171925e-06
3.043874057216646468e-06
3.091541107288544844e-06
3.133217922869056995e-06
3.168672059079379920e-06
3.197704981309726984e-06
3.220152065219292773e-06
3.235882596736306030e-06
3.244799772057994505e-06
3.246840697650590458e-06
3.241976390249335322e-06
3.230211776858475888e-06
3.211585694751273197e-06
3.186170891469986876e-06
3.154074024825887416e-06
3.115435662899241772e-06
3.070430284039354445e-06
3.019266276864511155e-06
2.962185940262011451e-06
2.899465483388159394e-06
2.831415025668249158e-06
2.758378596796642530e-06
2.680734136736650332e-06
2.598893495720606953e-06
2.513302434249854683e-06
2.424440623094719572e-06
2.332821643294613072e-06
2.238992986157868564e-06
2.143536053261862901e-06
2.047066156452977449e-06
1.950232517846566747e-06
1.853718269827086829e-06
1.758240455047906975e-06
1.664550026431435703e-06
1.573431847169089010e-06
1.485704690721267284e-06
1.402221240817455685e-06
1.323868091456054734e-06
1.251565746904526212e-06
1.186268621699303593e-06
1.128965040645847519e-06
1.080677238818648767e-06
1.042461361561172767e-06
1.015407464485892639e-06
1.000639513474298083e-06
9.993153846768917836e-07
1.012626864513173523e-06
1.041796043935744896e-06
1.080949824187257595e-06
1.123606246653377845e-06
1.169215058629463168e-06
1.217246488442603557e-06
1.267191245451699400e-06
1.318560520047410872e-06
1.370885983652169579e-06
1.423719788720194652e-06
1.476634568737431974e-06
1.529223438221643543e-06
1.581099992722349870e-06
1.631898308820842475e-06
1.681272944130198286e-06
1.728898937295225219e-06
1.774471807992544973e-06
1.817707556930537125e-06
1.858342665849353323e-06
1.896134097520926597e-06
1.930859295748931553e-06
1.962316185368845992e-06
1.990323172247909619e-06
2.014719143285133358e-06
2.035363466411305920e-06
2.052135990588971353e-06
2.064937045812461232e-06
2.073687443107876870e-06
2.078328474533088046e-06
2.078821913177737245e-06
2.075150013163238804e-06
2.067315509642781460e-06
2.055341618801323264e-06
2.039272037855595815e-06
2.019170945054094099e-06
1.995122999677105711e-06
1.967233342036670618e-06
1.935627593476609113e-06
1.900451856372511018e-06
1.861872714131726574e-06
1.820077231193413664e-06
1.775272953028467301e-06
1.727687906139565786e-06
1.677570598061159913e-06
1.625190017359456872e-06
1.570835633632480604e-06
1.514817397509981797e-06
1.457465740653498882e-06
1.399131575756344470e-06
1.340186296543580160e-06
1.281021777772095313e-06
1.222050375230501803e-06
1.163704925739192679e-06
1.106438747150338774e-06
1.050725638347869435e-06
9.970598792475267379e-07
9.459562307967831056e-07
8.979499349748978540e-07
8.535967147928945305e-07
8.134727742935684328e-07
7.781747985515157252e-07
7.483199536730703346e-07
7.245458867963434434e-07
7.075107260912345014e-07
6.978930807593991437e-07
6.963920410342724846e-07
7.037271781810604355e-07
7.206380531871049237e-07
7.448708338511764502e-07
7.734595753384264941e-07
8.058869692356147497e-07
8.416524868632404340e-07
8.802723792755117938e-07
9.212796772603524586e-07
9.642241913394147810e-07
1.008672511768029862e-06
1.054208008535281454e-06
1.100430831363957151e-06
1.146957909710560567e-06
1.193422952765324248e-06
1.239476449452157372e-06
1.284785668428724523e-06
1.329034658086392747e-06
1.371924246550245747e-06
1.413172041679094041e-06
1.452512431065429436e-06
1.489696582035494910e-06
1.524492441649237389e-06
1.556684736700320450e-06
1.586074973716130041e-06
1.612481438957745684e-06
1.635739198419985786e-06
1.655700097831376937e-06
1.672232762654163862e-06
1.685222598084305824e-06
1.694571789051472595e-06
1.700199300219055895e-06
1.702040875984165792e-06
1.700049040477621594e-06
1.694193097563961170e-06
1.684459130841442640e-06
1.670850003642033154e-06
1.653385359031420962e-06
1.632101619809008215e-06
1.607051988507903765e-06
1.578306447394957254e-06
1.545951758470711899e-06
1.510091463469433499e-06
1.470845883859102809e-06
1.428352120841408135e-06
1.382764055351783233e-06
1.334252348059352042e-06
1.283004439366953251e-06
1.229224549411155115e-06
1.173133678062214383e-06
1.114969604924159509e-06
1.054986889334680336e-06
9.934568703652053804e-07
9.306676668208788583e-07
8.669241772405313584e-07
8.025480798967811672e-07
7.378778327958960967e-07
6.732686736778780822e-07
6.090926200164533351e-07
5.457384690190379325e-07
4.836117976268236852e-07
4.231349625146575410e-07
3.647471000911242767e-07
3.089041264985279694e-07
2.560787376128734668e-07
2.067604090439164691e-07
1.614553961350944951e-07
1.206867339635661634e-07
8.499423734022538073e-08
5.493450080964924871e-08
3.108089865017059158e-08
1.402358487380415820e-08
4.369493226307714406e-09
2.742337187119044860e-09
9.782609969438221178e-09
2.614758452014533384e-08
5.251064657038931901e-08
8.825471168041704252e-08
1.318465173918160249e-07
1.824654545687285650e-07
2.393153778251529880e-07
3.016246055250307245e-07
3.686459197821899563e-07
4.396565664603593807e-07
5.139582551731898099e-07
5.908771592841681970e-07
6.697639159067454850e-07
7.499936259042527511e-07
8.309658538899199993e-07
9.121046282269023134e-07
9.928584410281847771e-07
1.072700248156723505e-06
1.151127469225350669e-06
1.227661987596799699e-06
1.301850150383724972e-06
1.373262768448618386e-06
1.441495116403935562e-06
1.506166932612011567e-06
1.566922419185081879e-06
1.623430241985298688e-06
1.675383530624665045e-06
1.722499878465134808e-06
1.764521342618545093e-06
1.801214443946633848e-06
1.832370167061047054e-06
1.857803960323305267e-06
1.877355735844858042e-06
1.890889869487042636e-06
1.898295200861103491e-06
1.899485033328174662e-06
1.894397133999299718e-06
1.882993733735422636e-06
1.865261527147380604e-06
1.841211672595919056e-06
1.810879792191669011e-06
1.774325971795195355e-06
1.731634761016926115e-06
1.682915173217212597e-06
1.628300685506294025e-06
1.567949238744301982e-06
1.502043237541311875e-06
1.430789550257254836e-06
1.354419509001977656e-06
1.273188909635227112e-06
1.187378011766623071e-06
1.097291538755763739e-06
1.003258677712073405e-06
9.056330794949000587e-07
8.047928587134894548e-07
7.011405937269678509e-07
5.951033266444377242e-07
4.871325633248239284e-07
3.777042733769765026e-07
2.673188901596467427e-07
1.565013107814519433e-07
4.580089610100694609e-08
-6.420852927325991095e-08
-1.729286769830037206e-07
-2.797367949199647134e-07
-3.839856672260240099e-07
-4.850036142930684193e-07
-5.820944927631714269e-07
-6.745376955284710624e-07
-7.615881517312212511e-07
-8.424763267637844027e-07
-9.164082222685611073e-07
-9.825653761381145436e-07
-1.040104862515082705e-06
-1.088159291792216409e-06
-1.125836810612364372e-06
-1.152221101868440806e-06
-1.166371384703505252e-06
-1.167322414510693126e-06
-1.154084482933250870e-06
-1.125643417864504399e-06
-1.080960583447911403e-06
-1.019214065905387808e-06
-9.478467380083631597e-07
-8.714059414989266379e-07
-7.906869015562394720e-07
-7.064555624935998564e-07
-6.194485877583056250e-07
-5.303733599317431895e-07
-4.399079807293674227e-07
-3.487012710006741295e-07
-2.573727707293046558e-07
-1.665127390328896108e-07
-7.668215416315347540e-08
1.158728649411250242e-08
9.779316641907370731e-08
1.814623499577541123e-07
2.621509823221851448e-07
3.394444895903057370e-07
4.129575787059873127e-07
4.823342374790530582e-07
5.472477345851995709e-07
6.074006195661167151e-07
6.625247228294065183e-07
7.123811556486030763e-07
7.567603101631852592e-07
7.954818593785269477e-07
8.283947571659749605e-07
8.553772382627920911e-07
8.763368182721778603e-07
8.912102936632640689e-07
8.999637417711052692e-07
9.025925207967014226e-07
8.991212698069796886e-07
8.896039087348016245e-07
8.741236383789545035e-07
8.527929404041737608e-07
8.257535773411110184e-07
7.931765925863590721e-07
7.552623104024402456e-07
7.122403359177987662e-07
6.643695551268445997e-07
6.119381348898901341e-07
5.552635229331891431e-07
4.946924478489255634e-07
4.306009190952016357e-07
3.633942269961033384e-07
2.935069427415985315e-07
2.214029183876013314e-07
1.475752868559663934e-07
7.254646193444592482e-08
-3.131861723193213077e-09
-7.887870859733361724e-08
-1.540838223023923583e-07
-2.281076655868578267e-07
-3.002814203333047670e-07
-3.699069875583141281e-07
-4.362569874126000115e-07
-4.985747591809194632e-07
-5.560743612820973544e-07
-6.079405712690299821e-07
-6.533288858286663279e-07
-6.913655207820345282e-07
-7.211474110842270512e-07
-7.417422108244199664e-07
-7.521882932258335580e-07
-7.514947506457607004e-07
-7.386413945755722579e-07
-7.125787556406971795e-07
-6.725541589763030583e-07
-6.255921718755079378e-07
-5.753278634170608992e-07
-5.222815642141680434e-07
-4.669544162360067392e-07
-4.098283728077123361e-07
-3.513661986103621759e-07
-2.920114696810416085e-07
-2.321885734127446249e-07
-1.723027085544401368e-07
-1.127398852110548244e-07
-5.386692484345804880e-08
3.968539731473508798e-09
6.043806434095447373e-08
1.152323934562247091e-07
1.680614601925654095e-07
2.186543863093137123e-07
2.667594822098058405e-07
3.121442469414632885e-07
3.545953681957337413e-07
3.939187223081072742e-07
4.299393742581248231e-07
4.625015776693403857e-07
4.914687748093788313e-07
5.167235965898969375e-07
5.381678625665931309e-07
5.557225809392119342e-07
5.693279485515249078e-07
5.789433508913617785e-07
5.845473620905871457e-07
5.861377449251078933e-07
5.837314508148719191e-07
5.773646198238702521e-07
5.670925806601355705e-07
5.529898506757402957e-07
5.351501358668008278e-07
5.136863308734663218e-07
4.887305189799500282e-07
4.604339721144860946e-07
4.289671508493543408e-07
3.945197044008821650e-07
3.573004706294210386e-07
3.175374760394030456e-07
2.754779357792635908e-07
2.313882536414940217e-07
1.855540220626275470e-07
1.382800221232245186e-07
8.989022354792717194e-08
4.072778470538127476e-08
-8.844947391717073820e-09
-5.844643708662504346e-08
-1.076759600785743542e-07
-1.561136034227130430e-07
-2.033202655301856143e-07
-2.488376561680918528e-07
-2.921882964594765003e-07
-3.328755188833606494e-07
-3.703834672746904971e-07
-4.041770968243993907e-07
-4.337021740793767518e-07
-4.583852769424610358e-07
-4.776337946724565661e-07
-4.908359278841154295e-07
-4.973606885481569572e-07
-4.965578999912579845e-07
-4.877581968960514739e-07
-4.702730253011236569e-07
-4.436014832568858308e-07
-4.110132471032572323e-07
-3.742621166398141887e-07
-3.338565888605912554e-07
-2.902885829816660602e-07
-2.440334404412100722e-07
-1.955499248994137986e-07
-1.452802222385354886e-07
-9.364994056288969896e-08
-4.106811019883167647e-08
1.207281630518223788e-08
6.539696417868450031e-08
1.185450364291368601e-07
1.711743138419450770e-07
2.229586549804734263e-07
2.735884961859863069e-07
3.227708515777362266e-07
3.702293130529052510e-07
4.157040502866189796e-07
4.589518107319596748e-07
4.997459196199158634e-07
5.378762799594590989e-07
5.731493725374905986e-07
6.053882559188563843e-07
6.344325664463544816e-07
6.601385182407025218e-07
6.823789032005872925e-07
7.010430910026306449e-07
7.160370291013994464e-07
7.272832427294049452e-07
7.347208348970964178e-07
7.383054863928751448e-07
7.380094557830836114e-07
7.338215794120078366e-07
7.257472714018754674e-07
7.138085236528646728e-07
6.980439058430941909e-07
6.785085654286231175e-07
6.552742276434610702e-07
6.284291954995482830e-07
5.980783497867947822e-07
5.643431490730327400e-07
5.273616297040444272e-07
4.872884058035548013e-07
4.442946692732249423e-07
3.985681897926910158e-07
3.503133148194996871e-07
2.997509695891573550e-07
2.471186571151045288e-07
1.926704581887224987e-07
1.366770313793729349e-07
7.942561303432218368e-08
2.122001727879134848e-08
-3.761936398405456287e-08
-9.675556107312140825e-08
-1.558350265293133840e-07
-2.144876351156579094e-07
-2.723266838172091708e-07
-3.289488918410762324e-07
-3.839344006164434711e-07
-4.368467737945173722e-07
-4.872329972485787807e-07
-5.346234790739692427e-07
-5.785320495880857118e-07
-6.184559613303859489e-07
-6.538758890623500878e-07
-6.842559297675551742e-07
-7.090436026516148148e-07
-7.276698491421969648e-07
-7.395490328890394922e-07
-7.440789397639279432e-07
-7.406407778606879186e-07
-7.285991774952387553e-07
-7.073021912055078691e-07
-6.760819343447945855e-07
-6.356707668035354229e-07
-5.876971683070003144e-07
-5.329630164720481903e-07
-4.722461141197293203e-07
-4.063001892752650905e-07
-3.358548951681255597e-07
-2.616158102319159572e-07
-1.842644381044505333e-07
-1.044582076277344541e-07
-2.283047284794109052e-08
6.000948698449554955e-08
1.434764674150196285e-07
2.270093387848622112e-07
3.100710462310614881e-07
3.921486096864899861e-07
4.727531238797572654e-07
5.514197583353524332e-07
6.277077573735514992e-07
7.012004401104377044e-07
7.715052004579243909e-07
8.382535071236713580e-07
9.011009036112112809e-07
9.597270082198635258e-07
1.013835514044756173e-06
1.063154188976840203e-06
1.107434875702834230e-06
1.146453491705308781e-06
1.180010029262626789e-06
1.207928555448962022e-06
1.230057212134302039e-06
1.246268215984426388e-06
1.256457858460940694e-06
1.260546505821254634e-06
1.258478599118585119e-06
1.250222654201956716e-06
1.235771261716210537e-06
1.215141087101987094e-06
1.188372870595742175e-06
1.155531427229737953e-06
1.116705646832033668e-06
1.072008494026533061e-06
1.021577008232911315e-06
9.655723036666709654e-07
9.041795693391188112e-07
8.376080690573464374e-07
7.660911414243229642e-07
6.898861998387605802e-07
6.092747324952043282e-07
5.245623023840056352e-07
4.360785472912922429e-07
3.441771797990982274e-07
2.492359872851652636e-07
1.516568319230888447e-07
5.186565068225814269e-08
-4.968754467214123866e-08
-1.525286675790478547e-07
-2.561595566816588331e-07
-3.600579758273491415e-07
-4.636776140676684106e-07
-5.664480856584045680e-07
-6.677749300594326953e-07
-7.670396119349233457e-07
-8.635995211531930422e-07
-9.567879727867465240e-07
-1.045914207112331380e-06
-1.130263389610788122e-06
-1.209096610967233889e-06
-1.281650887070934966e-06
-1.347139159015367770e-06
-1.404750293098204874e-06
-1.453649080821278588e-06
-1.492976238890627540e-06
-1.521848409216513200e-06
-1.539358158913330299e-06
-1.544573980299706360e-06
-1.536540290898455113e-06
-1.514277433436563570e-06
-1.476781675845242009e-06
-1.423025211259832700e-06
-1.354897362771833682e-06
-1.280818674722998377e-06
-1.202104996477700551e-06
-1.119521336328623939e-06
-1.033804177200260788e-06
-9.456614766488875022e-07
-8.557726668626642807e-07
-7.647886546614855054e-07
-6.733318214970794815e-07
-5.819960234529832375e-07
-4.913465912445166912e-07
-4.019203302188861988e-07
-3.142255203550293368e-07
-2.287419162637188749e-07
-1.459207471875357768e-07
-6.618471700084749535e-08
1.007199579009970134e-08
8.248373804732239585e-08
1.507133820010040950e-07
2.144523252495178882e-07
2.734204907594457170e-07
3.273663268655108248e-07
3.760668072706785532e-07
4.193274310460866740e-07
4.569822226310657177e-07
4.888937318331455382e-07
5.149530338280197371e-07
5.350797291596000860e-07
5.492219437399824331e-07
5.573563288494522091e-07
5.594880611364844270e-07
5.556508426177483411e-07
5.459069006781023643e-07
5.303469880705974569e-07
5.090903829164733143e-07
4.822848887051541323e-07
4.501068342942788882e-07
4.127610739096564483e-07
3.704809871452914024e-07
3.235284789633785578e-07
2.721939796942942575e-07
2.167964450366433905e-07
1.576833560571831587e-07
9.523071919087834591e-08
2.984306624087442443e-08
-3.804654562149884489e-08
-1.079765338566715086e-07
-1.794567905569390879e-07
-2.519686824463768167e-07
-3.249650508808817814e-07
-3.978702118481775796e-07
-4.700799559677280287e-07
-5.409615484908777731e-07
-6.098537293007469350e-07
-6.760667129122792887e-07
-7.388821884722323085e-07
-7.975533197591333346e-07
-8.513047451833516768e-07
-8.993325777870621919e-07
-9.408044052442533307e-07
-9.748592898607159148e-07
-1.000607768574029161e-06
-1.017131852953617112e-06
-1.023485029200689033e-06
-1.018692258148280063e-06
-1.001749975261206957e-06
-9.716260906361290790e-07
-9.282403773969901514e-07
-8.792857161538387112e-07
-8.270631856854492978e-07
-7.720933824556389407e-07
-7.148776894038305685e-07
-6.558982759449594119e-07
-5.956180979695335666e-07
-5.344808978436202287e-07
-4.729112044088272721e-07
-4.113143329823739756e-07
-3.500763853569851437e-07
-2.895642498009615163e-07
-2.301256010581625106e-07
-1.720889003479897034e-07
-1.157633953654523709e-07
-6.143912028106859732e-08
-9.386895740931131538e-09
4.014167113330785915e-08
8.691418674445108293e-08
1.307174710197041368e-07
1.713575574107527981e-07
2.086596928937117796e-07
2.424683379691378579e-07
2.726471666620360144e-07
2.990790665218280959e-07
3.216661386224040589e-07
3.403296975620868189e-07
3.550102714636394492e-07
3.656676019742692050e-07
3.722806442656173587e-07
3.748475670337759287e-07
3.733857524992756095e-07
3.679317964070864067e-07
3.585415080266178489e-07
3.452899101517312697e-07
3.282712391007207492e-07
3.075989447163224317e-07
2.834056903657170667e-07
2.558433529405151857e-07
2.250830228567947951e-07
1.913150040550543664e-07
1.547488140002386699e-07
1.156131836817319991e-07
7.415605761335245294e-08
3.064459383339555806e-08
-1.463483609544090543e-08
-6.137664708600428200e-08
-1.092560405266999579e-07
-1.579290042815068196e-07
-2.070323126899148909e-07
-2.561835265670246476e-07
-3.049809932034720551e-07
-3.530038463654529205e-07
-3.998120062947418451e-07
-4.449461797086268970e-07
-4.879278597999857378e-07
-5.282593262372573534e-07
-5.654236451644325247e-07
-5.988846692010696034e-07
-6.280870374422545959e-07
-6.524561754586566435e-07
-6.713982952965070588e-07
-6.843003954775887375e-07
-6.905302609992395469e-07
-6.894364633343562427e-07
-6.803483604314046342e-07
-6.625760967143894083e-07
-6.354646559148947906e-07
-6.018043437889282674e-07
-5.638751751123543259e-07
-5.221940714611563316e-07
-4.772611559351966703e-07
-4.295597531582073254e-07
-3.795563892777756893e-07
-3.277007919654021093e-07
-2.744258904164142312e-07
-2.201478153500235385e-07
-1.652658990093110592e-07
-1.101626751612125424e-07
-5.520387909658029179e-08
-7.384476300892507802e-10
5.290148089969999926e-08
1.054005666303567504e-07
1.564602681755954147e-07
2.057988426252160201e-07
2.531513455451941021e-07
2.982696309776196110e-07
3.409223514407132176e-07
3.808949579288352070e-07
4.179896999124449270e-07
4.520256253381643154e-07
4.828385806287345954e-07
5.102812106830266520e-07
5.342229588760486550e-07
5.545500670589176836e-07
5.711655755589031370e-07
5.839893231793968760e-07
5.929579471999210584e-07
5.980248833761287743e-07
5.991603659397989636e-07
5.963514275988457338e-07
5.896018995373126422e-07
5.789324114153724843e-07
5.643803913693230584e-07
5.460000660116060124e-07
5.238624604307812209e-07
4.980553981915403377e-07
4.686835013347099723e-07
4.358681903772315726e-07
3.997476843122101297e-07
3.604770006088489559e-07
3.182279552124935190e-07
2.731891625446164075e-07
2.255660355028101305e-07
1.755807854608371986e-07
1.234724222685457386e-07
6.949675425193534996e-08
1.392638821312798805e-08
-4.294927056963552970e-08
-1.008240183419383492e-07
-1.593748528732807531e-07
-2.182619734570128222e-07
-2.771287809103651397e-07
-3.356018775744430742e-07
-3.932910673141813045e-07
-4.497893555184271994e-07
-5.046729490998849134e-07
-5.575012564951231163e-07
-6.078168876646044797e-07
-6.551456540926129921e-07
-6.989965687873389788e-07
-7.388618462808445860e-07
-7.742169026290494869e-07
-8.045203554117451750e-07
-8.292140237325884004e-07
-8.477229282191156745e-07
-8.594552910227245298e-07
-8.638025358186867546e-07
-8.601392878061495578e-07
-8.478233737081255103e-07
-8.261958217714861923e-07
-7.945808617669844279e-07
-7.536409305797897140e-07
-7.052106145529563464e-07
-6.500884510329044365e-07
-5.890473734542569903e-07
-5.228363084852862351e-07
-4.521801760279003319e-07
-3.777798892176228345e-07
-3.003123544236773402e-07
-2.204304712488608578e-07
-1.387631325296272942e-07
-5.591522433606723045e-08
2.753237402811701193e-08
1.110227900255137509e-07
1.940231578851475275e-07
2.760246186023832852e-07
3.565423199389478637e-07
4.351154164229549859e-07
5.113070693488149432e-07
5.847044467773688506e-07
6.549187235357990724e-07
7.215850812176514571e-07
7.843627081828529133e-07
8.429347995576406825e-07
8.970085572346701239e-07
9.463151898729412345e-07
9.906099128978183423e-07
1.029671948501040059e-06
1.063304525640674600e-06
1.091334880041189451e-06
1.113614254193401183e-06
1.130017897354494721e-06
1.140445065548016146e-06
1.144819021563869091e-06
1.143087034958331900e-06
1.135220382054038564e-06
1.121214345939992700e-06
1.101088216471547644e-06
1.074885290270446899e-06
1.042672870724771405e-06
1.004542267988983373e-06
9.606087989838930412e-07
9.110117873966711674e-07
8.559145636808941328e-07
7.955044650564547924e-07
7.299928355096270617e-07
6.596150257930460108e-07
5.846303934256953708e-07
5.053223026929729674e-07
4.219981246465933117e-07
3.349892371046418107e-07
2.446510246515764609e-07
1.513628786381879324e-07
5.552819718171328260e-08
-4.242561483433440292e-08
-1.420471457600403322e-07
-2.428609771791326876e-07
-3.443676839090022666e-07
-4.460438340005943263e-07
-5.473419887385753428e-07
-6.476907026412180266e-07
-7.464945234604273160e-07
-8.431339921817734643e-07
-9.369656430243884899e-07
-1.027322003441116313e-06
-1.113511594118413441e-06
-1.194818928976367285e-06
-1.270504515168728243e-06
-1.339804853082822453e-06
-1.401932436339659580e-06
-1.456075751793888133e-06
-1.501399279533775774e-06
-1.537043492881230704e-06
-1.562124858391795945e-06
-1.575735835854655059e-06
-1.576944878292624099e-06
-1.564796431962164319e-06
-1.538310936353370945e-06
-1.496484824189941626e-06
-1.438290782302043559e-06
-1.368769931128391145e-06
-1.294041539253912138e-06
-1.214886252678341576e-06
-1.132056470314260652e-06
-1.046276343986960770e-06
-9.582417784345318466e-07
-8.686204313078420878e-07
-7.780517131705108845e-07
-6.871467874990118323e-07
-5.964885706825193135e-07
-5.066317320230101403e-07
-4.181026937352392028e-07
-3.313996309467133172e-07
-2.469924716977910693e-07
-1.653228969415338430e-07
-8.680434054380534643e-08
-1.182198928324683624e-08
5.926721714874342281e-08
1.261345861479296898e-07
1.884796721973586029e-07
2.460302768672808286e-07
2.985424488151688496e-07
3.458004837857298819e-07
3.876169246108554768e-07
4.238325612096988117e-07
4.543164305886249280e-07
4.789658168412185655e-07
4.977062511482919976e-07
5.104915117778674553e-07
5.173036240852044442e-07
5.181528605127789921e-07
5.130777405902895782e-07
5.021450309346567095e-07
4.854497452500284269e-07
4.631151443277714106e-07
4.352927360464737340e-07
4.021622753719505800e-07
3.639317643572237016e-07
3.208374521425724547e-07
2.731438349554700594e-07
2.211436561106179048e-07
1.651579060099432193e-07
1.055358221425745071e-07
4.265488908491820434e-08
-2.307916149944529393e-08
-9.123235085970340045e-08
-1.613424531578130297e-07
-2.329189954685338440e-07
-3.054432577793467264e-07
-3.783682729905518253e-07
-4.511188269152272607e-07
-5.230914582792180078e-07
-5.936544587211723187e-07
-6.621478727924449494e-07
-7.278834979572400963e-07
-7.901448845925113406e-07
-8.481873359879945766e-07
-9.012379083462191291e-07
-9.484954107824379789e-07
-9.891304053247321598e-07
-1.022285206913939502e-06
-1.047073883403697724e-06
-1.062582255560391814e-06
-1.067867897063196163e-06
-1.061960134504062714e-06
-1.043860047387723922e-06
-1.012540468131691061e-06
-9.682085169374825953e-07
-9.185960536219564500e-07
-8.656565095487938371e-07
-8.099179236668803407e-07
-7.518888952682065307e-07
-6.920585839878510227e-07
-6.308967098040487693e-07
-5.688535530380894166e-07
-5.063599543543837963e-07
-4.438273147604488906e-07
-3.816475956068880330e-07
-3.201933185874639649e-07
-2.598175657389905211e-07
-2.008539794414046280e-07
-1.436167624177488328e-07
-8.840067773415468133e-08
-3.548104879990613904e-08
1.488624063265453528e-08
6.246474646806537964e-08
1.070374642677578579e-07
1.484068292500704123e-07
1.863947162902012413e-07
2.208424399202794505e-07
2.516107543293161362e-07
2.785798533632173031e-07
3.016493705247900048e-07
3.207383789737179919e-07
3.357853915265983462e-07
3.467483606569173400e-07
3.536046784950557304e-07
3.563511768282874884e-07
3.550041271007831874e-07
3.495992404136089440e-07
3.401916675247226068e-07
3.268559988489822262e-07
3.096862644581293262e-07
2.887959340808189732e-07
2.643179171025865308e-07
2.364045625658656586e-07
2.052276591699853481e-07
1.709784352711603932e-07
1.338675588825290833e-07
9.412513767409221683e-08
5.200071897276117073e-08
7.763289762339265268e-09
-3.829872331648956477e-08
-8.587745396610581889e-08
-1.346455962320346872e-07
-1.842564045028922640e-07
-2.343436935104043940e-07
-2.845218383294103783e-07
-3.343857743778005054e-07
-3.835109974166703178e-07
-4.314535635501325696e-07
-4.777500892254099777e-07
-5.219177512329131481e-07
-5.634542867060415233e-07
-6.018379931214130343e-07
-6.365277282986678008e-07
-6.669629104005700922e-07
-6.925635179330239985e-07
-7.127300897449873499e-07
-7.268437250285749494e-07
-7.342660833189671989e-07
-7.343393844944724620e-07
-7.263864087764830185e-07
-7.097104967295227095e-07
-6.835955492611902929e-07
-6.498812772205690405e-07
-6.117250813528527858e-07
-5.696622632762217160e-07
-5.242053293800229764e-07
-4.758496537253930086e-07
-4.250734780454330449e-07
-3.723379117451382222e-07
-3.180869319013014442e-07
-2.627473832627248212e-07
-2.067289782499745609e-07
-1.504242969555997137e-07
-9.420878714403751758e-08
-3.844076425151826524e-08
1.653858861371293198e-08
7.040522067164840105e-08
1.228522134702974670e-07
1.735897808857856615e-07
2.223452691224349794e-07
2.688631567125674730e-07
3.129050545167238922e-07
3.542497057234778669e-07
3.926929858495199747e-07
4.280479027397181984e-07
4.601445965669678946e-07
4.888303398323527307e-07
5.139695373650131824e-07
5.354437263222077321e-07
5.531515761893437857e-07
5.670088887798974162e-07
5.769485982354885376e-07
5.829207710258273304e-07
5.848926059487424053e-07
5.828484341301784737e-07
5.767897190241914777e-07
5.667350564129380018e-07
5.527201744066981428e-07
5.347979334438725454e-07
5.130383262909394153e-07
4.875284780425373163e-07
4.583726461213601385e-07
4.256922202782568365e-07
3.896257225921971244e-07
3.503288074701988429e-07
3.079742616474755543e-07
2.627520041872660778e-07
2.148690864809845199e-07
1.645496922481683936e-07
1.120351375363772919e-07
5.758387072140147009e-08
1.471472507022241095e-09
-5.600934407478060742e-08
-1.145487336639057871e-07
-1.738197185722439053e-07
-2.334781887834379667e-07
-2.931629019531538945e-07
-3.524954834088532606e-07
-4.110804261498700483e-07
-4.685050908475409893e-07
-5.243397058449472716e-07
-5.781373671572002543e-07
-6.294340384711888401e-07
-6.777485511457143653e-07
-7.225826042115235809e-07
-7.634207643711687869e-07
-7.997304659991794614e-07
-8.309620111418937020e-07
-8.565485695175683394e-07
-8.759061785163632678e-07
-8.884337432003070336e-07
-8.935130363033246822e-07
-8.905086982312320403e-07
-8.787682370617163398e-07
-8.576220285443710524e-07
-8.263833161006959952e-07
-7.855430551489173351e-07
-7.371974713545588281e-07
-6.821648642092162154e-07
-6.212182305971391017e-07
-5.551064991364908409e-07
-4.845545301790735673e-07
-4.102631158105833123e-07
-3.329089798505066128e-07
-2.531447778519803274e-07
-1.715990971021004859e-07
-8.887645662156394132e-08
-5.557307164987754210e-09
7.780196877922675596e-08
1.606690569890379007e-07
2.425357115084335971e-07
3.229177546478068155e-07
4.013550769836259774e-07
4.774116373585841393e-07
5.506754628817192717e-07
6.207586489281182206e-07
6.872973591392478974e-07
7.499518254226725821e-07
8.084063479521828837e-07
8.623692951678848906e-07
9.115731037759750713e-07
9.557742787489858084e-07
9.947533933255808401e-07
1.028315089010651398e-06
1.056288075575367878e-06
1.078525131057041875e-06
1.094903101759261292e-06
1.105322902251796312e-06
1.109709515370642602e-06
1.108011992218022158e-06
1.100203452162371022e-06
1.086281082838333354e-06
1.066266140146779645e-06
1.040203948254813912e-06
1.008163899595712294e-06
9.702394548690327381e-07
9.265481430404721694e-07
8.772315613420081596e-07
8.224553752718459853e-07
7.624093185943216436e-07
6.973071933401118098e-07
6.273868698059665992e-07
5.529102865549736289e-07
4.741634504164381634e-07
3.914564364857478005e-07
3.051233881247068376e-07
2.155225169611220730e-07
1.230361028891797352e-07
2.807049406929047596e-08
-6.894389307209443585e-08
-1.675525738420676445e-07
-2.672769952817429048e-07
-3.676145361658433709e-07
-4.680385070028666091e-07
-5.679981500352771917e-07
-6.669186392390758751e-07
-7.642010803242973907e-07
-8.592225107345574405e-07
-9.513358996472875373e-07
-1.039870147973846495e-06
-1.124130088359180983e-06
-1.203396485182179896e-06
-1.276926034555414326e-06
-1.343951364325228820e-06
-1.403681034071859336e-06
-1.455299535109201574e-06
-1.497967290485033964e-06
-1.530820654980836607e-06
-1.552971915111902873e-06
-1.563509289127331569e-06
-1.561496927009974418e-06
-1.545974910476468251e-06
-1.515959252977239451e-06
-1.470441899696533811e-06
-1.408650347747567925e-06
-1.334692549656342409e-06
-1.251211971390305895e-06
-1.159351391402592039e-06
-1.060216747411860776e-06
-9.548771364021066819e-07
-8.443648146230624717e-07
-7.296751975897230792e-07
-6.117668600827772177e-07
-4.915615361484275974e-07
-3.699441190981773675e-07
-2.477626615093098544e-07
-1.258283752243398961e-07
-4.915631351496439137e-09
1.142380397354871018e-07
2.309319483975742263e-07
3.445022457299546094e-07
4.543219235625707445e-07
5.598008144596645689e-07
6.603855917199837162e-07
7.555597693769363118e-07
8.448437021982040906e-07
9.277945856861693013e-07
1.004006456077555988e-06
1.073110190343595586e-06
1.134773506190130258e-06
1.188700962057345235e-06
1.234633957120051296e-06
1.272350731287459040e-06
1.301666365203290691e-06
1.322432780245811016e-06
1.334538738527718903e-06
1.337909842896243500e-06
1.332508536933090431e-06
1.318334104954470591e-06
1.295422672011067961e-06
1.263847203888098901e-06
1.223717507105210927e-06
1.175180228916599603e-06
1.118418857310971274e-06
1.053653721011422782e-06
9.811419894756938868e-07
9.011776728958492023e-07
8.140916221985712707e-07
7.202515290450606127e-07
6.200619258308392157e-07
5.139641856861448277e-07
4.024365224754845709e-07
2.859939907980254241e-07
1.651884859874419683e-07
4.060874411170039303e-08
-8.711965802646716447e-08
-2.173343028901095914e-07
-3.493359322075909310e-07
-4.823884469727482485e-07
-6.157189074451657518e-07
-7.485175331496357614e-07
-8.799377028767494095e-07
-1.009095954682385774e-06
-1.135071985887930728e-06
-1.256908653080499186e-06
-1.373611972112417878e-06
-1.484151118101796252e-06
-1.587458425432041125e-06
-1.682429387752113970e-06
-1.767922657976610110e-06
-1.842760048285428379e-06
-1.905726530124180448e-06
-1.955570234203830203e-06
-1.991002450500863573e-06
-2.010697628257367940e-06
-2.013293375980869723e-06
-1.997390461444400228e-06
-1.961552811686510904e-06
-1.904307513011279476e-06
-1.824834348937095167e-06
-1.733901981716579624e-06
-1.636466161267217387e-06
-1.533525567565619705e-06
-1.426042515669311188e-06
-1.314942955716532877e-06
-1.201116472926674649e-06
-1.085416287599772296e-06
-9.686592551169568705e-07
-8.516258659402619913e-07
-7.350602456124230927e-07
-6.196701547573424472e-07
-5.061269890795582871e-07
-3.950657793647100377e-07
-2.870851914793290999e-07
-1.827475263706675378e-07
-8.257872006711799530e-08
1.293165632225683051e-08
1.033303966073233312e-07
1.882006595170546523e-07
2.671619686996704532e-07
3.398702127223002122e-07
4.060176450713453328e-07
4.653328841521805644e-07
5.175809132892954571e-07
5.625630807263642419e-07
6.001170996260522833e-07
6.301170480702142856e-07
6.524733690597405561e-07
6.671328705146353553e-07
6.740787252740270620e-07
6.733304710961169275e-07
6.649440106582112624e-07
6.490116115567146613e-07
6.256619063071562598e-07
5.950598923441046083e-07
5.574069320213048915e-07
5.129407526115162973e-07
4.619354463066606718e-07
4.047014702177708501e-07
3.415856463748830829e-07
2.729711617272729355e-07
1.992775681431512025e-07
1.209607824099616406e-07
3.851308623424036044e-08
-4.753687375850826337e-08
-1.366240860234948020e-07
-2.281471740970214903e-07
-3.214683965961535781e-07
-4.159136472188455380e-07
-5.107724547441125895e-07
-6.052979830316649927e-07
-6.987070310223114477e-07
-7.901800327376247282e-07
-8.788610572800577251e-07
-9.638578088331357231e-07
-1.044241626661076295e-06
-1.119047485109189734e-06
-1.187273993603544058e-06
-1.247883396651132714e-06
-1.299801573839936208e-06
-1.341918039838725587e-06
-1.373085944397273566e-06
-1.392122072346168601e-06
-1.397806843596952747e-06
-1.388884313142037587e-06
-1.364062171054783431e-06
-1.322011742489356593e-06
-1.263649950597026719e-06
-1.199781173326465908e-06
-1.132521933572464256e-06
-1.062477011139254048e-06
-9.902279460870307368e-07
-9.163330387322269578e-07
-8.413273496473975476e-07
-7.657226996610874046e-07
-6.900076698581310218e-07
-6.146476015793091205e-07
-5.400845964216504059e-07
-4.667375162383004888e-07
-3.950019831383981130e-07
-3.252503794873655814e-07
-2.578318479065824370e-07
-1.930722912736668890e-07
-1.312743727223493939e-07
-7.271751564237418721e-08
-1.765790367973962945e-08
3.367151926356395065e-08
8.106104902933572166e-08
1.243242212032632405e-07
1.632978111149904270e-07
1.978418338379462511e-07
2.278395441895281161e-07
2.531974367309521449e-07
2.738452457673287782e-07
2.897359453476818324e-07
3.008457492648758670e-07
3.071741110556896640e-07
3.087437240007596891e-07
3.056005211246186313e-07
2.978136751956699922e-07
2.854755987262145556e-07
2.687019439724110003e-07
2.476316029343167699e-07
2.224267073558878607e-07
1.932726287249066121e-07
1.603779782731083383e-07
1.239746069760366973e-07
8.431760555316778100e-08
4.168530446787221087e-08
-3.620726072673165501e-09
-5.127567611731078556e-08
-1.009314959711086243e-07
-1.522168961951653766e-07
-2.047373476067068074e-07
-2.580750812791539377e-07
-3.117890885419339446e-07
-3.654151209807108717e-07
-4.184656904371773650e-07
-4.704300690091466819e-07
-5.207742890506361239e-07
-5.689411431716655484e-07
-6.143501842384825742e-07
-6.563977253733794098e-07
-6.944568399547671813e-07
-7.278773616172377653e-07
-7.559858842514260405e-07
-7.780857620041483772e-07
-7.934571092783019466e-07
-8.013568007328976493e-07
-8.010184712830989724e-07
-7.916525161001595213e-07
-7.724460906114565834e-07
-7.426154747261392253e-07
-7.074562366857933052e-07
-6.711231099813394363e-07
-6.338840024020265802e-07
-5.959957180053118708e-07
-5.577039571170073630e-07
-5.192433163312175642e-07
-4.808372885102728360e-07
-4.426982627848825488e-07
-4.050275245539605924e-07
-3.680152554847775778e-07
-3.318405335128945565e-07
-2.966713328421019285e-07
-2.626645239445635964e-07
-2.299658735606558709e-07
-1.987100446991051129e-07
-1.690205966369262713e-07
-1.410099849193751840e-07
-1.147795613600651513e-07
-9.041957404083924510e-08
-6.800916731187767082e-08
-4.761638179164747457e-08
-2.929815436687321471e-08
-1.310031819261488884e-08
9.423973078148636351e-10
1.280636644278405767e-08
2.247906725237397337e-08
2.995908150838963797e-08
3.525609471432573284e-08
3.839089610539962768e-08
3.939537864852702839e-08
3.831253904233828242e-08
3.519647771716736736e-08
3.011239883506396115e-08
2.313661028977565439e-08
1.435652370676605566e-08
3.870654443212038682e-09
-8.211378412018704072e-09
-2.176885203832636851e-08
-3.666993988342975502e-08
-5.277171166331819935e-08
-6.992013336226914857e-08
-8.795006723288087767e-08
-1.066852717960039858e-07
-1.259384018408217585e-07
-1.455110084247764759e-07
-1.651935388736039292e-07
-1.847653367813621139e-07
-2.039946420103591265e-07
-2.226385906912357496e-07
-2.404432152228909134e-07
-2.571434442725225650e-07
-2.724631027756417501e-07
-2.861149119360178739e-07
-2.978004892257454575e-07
-3.072103483851811400e-07
-3.140238994229886241e-07
-3.179094486161275061e-07
-3.185241985098346938e-07
-3.155142479176481234e-07
-3.085145919213945839e-07
