0.000000000000000000e+00
0.000000000000000000e+00
1.075270516647416560e-02
2.094866030092015774e-02
3.061520766666785132e-02
3.977855434683076619e-02
4.846039015096983982e-02
5.668172554694743404e-02
6.446296852349123196e-02
7.182392459019421027e-02
7.878379677751468080e-02
8.536118563677624893e-02
9.157408924016779972e-02
9.743990318074358115e-02
1.029754205724230376e-01
1.081968320499910319e-01
1.131197257690976510e-01
1.177590874062584003e-01
1.221293001588538985e-01
1.262451964408814464e-01
1.301192363412549957e-01
1.337609056397470464e-01
1.371795103107351088e-01
1.403841863307654925e-01
1.433838996785533615e-01
1.461874463349827347e-01
1.488034522831065409e-01
1.512403735081464806e-01
1.535064959974931642e-01
1.556099357407060846e-01
1.575586387295134783e-01
1.593603809578125752e-01
1.610227684216693489e-01
1.625532371193187386e-01
1.639590530511643718e-01
1.652473122197789523e-01
1.664249406299038447e-01
1.674986942884493513e-01
1.684751592044946844e-01
1.693602195175477887e-01
1.701572537472894053e-01
1.708693266990715109e-01
1.714995082303511775e-01
1.720508475983751340e-01
1.725263734601795995e-01
1.729290938725904503e-01
1.732619962922230528e-01
1.735280475754824026e-01
1.737301939785630134e-01
1.738713611574489726e-01
1.739544541679139966e-01
1.739823574655213201e-01
1.739579349056237512e-01
1.738840297433636439e-01
1.737634646336730093e-01
1.735990416312733209e-01
1.733935421906756813e-01
1.731497271661807669e-01
1.728703368118787997e-01
1.725580907816495480e-01
1.722156881291624086e-01
1.718458073078763249e-01
1.714511061710397855e-01
1.710339511978482274e-01
1.705943435552049747e-01
1.701326629135701540e-01
1.696495814738018248e-01
1.691457841424539588e-01
1.686219685317766059e-01
1.680788449597158118e-01
1.675171364499136450e-01
1.669375787317081972e-01
1.663409202401336107e-01
1.657279221159199678e-01
1.650993582054934294e-01
1.644560150609762073e-01
1.637986919401864527e-01
1.631282008066383404e-01
1.624453663295421513e-01
1.617510258838041337e-01
1.610460295500265038e-01
1.603312401145075561e-01
1.596075330692416361e-01
1.588757966119190290e-01
1.581369316459260710e-01
1.573918517803451766e-01
1.566414833299546450e-01
1.558867653152289368e-01
1.551286494623384249e-01
1.543681002031495886e-01
1.536060946752248468e-01
1.528436227218227250e-01
1.520815076867250704e-01
1.513188315529311045e-01
1.505552601800741741e-01
1.497907828816082698e-01
1.490254007379531176e-01
1.482591265964940952e-01
1.474919850715823155e-01
1.467240125445345433e-01
1.459552571636332507e-01
1.451857788441265618e-01
1.444156492682282800e-01
1.436449518851179441e-01
1.428737819109408003e-01
1.421022463288076632e-01
1.413304638887951659e-01
1.405585651079455101e-01
1.397866922702666881e-01
1.390149994267322886e-01
1.382436523952816909e-01
1.374728287608198429e-01
1.367027178752174554e-01
1.359335208573108911e-01
1.351654505929022476e-01
1.343987317347592469e-01
1.336336007026153183e-01
1.328703056831695428e-01
1.321091066300868200e-01
1.313502752639975624e-01
1.305940950724980010e-01
1.298408613101499631e-01
1.290908809984810113e-01
1.283444729259843875e-01
1.276019676481189857e-01
1.268637074873094350e-01
1.261300465329460441e-01
1.254013506413847456e-01
1.246778155367065793e-01
1.239583223833233272e-01
1.232425386442854015e-01
1.225303822757035366e-01
1.218217759541825873e-01
1.211166470768216818e-01
1.204149277612140689e-01
1.197165548454472150e-01
1.190214698881027489e-01
1.183296191682565029e-01
1.176409536854784860e-01
1.169554291598329243e-01
1.162730060318781788e-01
1.155936494626668282e-01
1.149173293337456409e-01
1.142440202471555616e-01
1.135737015254317250e-01
1.129063572116034420e-01
1.122419760691942270e-01
1.115805515822217570e-01
1.109220819551979403e-01
1.102665701131288201e-01
1.096140237015146568e-01
1.089644550863498873e-01
1.083178813541231245e-01
1.076743243118171850e-01
1.070338104869090756e-01
1.063963711273699930e-01
1.057620422016652684e-01
1.051308643987544783e-01
1.045028831280913617e-01
1.038781485196238474e-01
1.032567154237940821e-01
1.026386434115383189e-01
1.020239967742870568e-01
1.014128445239650123e-01
1.008052603929909946e-01
1.002013228342780726e-01
9.960111502123347726e-02
9.900472484775864335e-02
9.841224492824918180e-02
9.782377259759483801e-02
9.723940991117963062e-02
9.665926364488172662e-02
9.608344529507346909e-02
9.551205786180655410e-02
9.494451235676572287e-02
9.438041022835676197e-02
9.381971202263456044e-02
9.326237927656766402e-02
9.270837451803840001e-02
9.215766126584272466e-02
9.161020402969033416e-02
9.106596831020465077e-02
9.052492059892271181e-02
8.998702837829536394e-02
8.945226012168706886e-02
8.892058529337602824e-02
8.839197434855416979e-02
8.786639873332705020e-02
8.734383088471402157e-02
8.682424423064803720e-02
8.630761318997584586e-02
8.579391317245785298e-02
8.528312057876813457e-02
8.477521280049453434e-02
8.427016822013858044e-02
8.376796621111544383e-02
8.326858713775409093e-02
8.277201235529710321e-02
8.227822420990080210e-02
8.178720603863526284e-02
8.129894216948414798e-02
8.081341792134492941e-02
8.033061960402869406e-02
7.985053451826031046e-02
7.937315095567830381e-02
7.889845819883488376e-02
7.842644652119602766e-02
7.795710718714132792e-02
7.749043245196414464e-02
7.702641556187155014e-02
7.656505075398423177e-02
7.610633325633670010e-02
7.565025928787702525e-02
7.519682605846711443e-02
7.474603176888250378e-02
7.429787561081244163e-02
7.385235776685988851e-02
7.340947941054148940e-02
7.296924270628760145e-02
7.253165080944230791e-02
7.209670786626334871e-02
7.166441901392220371e-02
7.123479038050400947e-02
7.080782908500765638e-02
7.038354323734573315e-02
6.996194193834447128e-02
6.954303527974387000e-02
6.912683434419757134e-02
6.871335120527298501e-02
6.830259892745119132e-02
6.789459156612694113e-02
6.748934416760873911e-02
6.708687276911876052e-02
6.668718107402993311e-02
6.628985198658238209e-02
6.589468283607580190e-02
6.550167679265211929e-02
6.511083665094513639e-02
6.472216483008064181e-02
6.433566337367632726e-02
6.395133394984181541e-02
6.356917785117868758e-02
6.318919599478044213e-02
6.281138892223250836e-02
6.243575679961227420e-02
6.206229941748901691e-02
6.169101619092400707e-02
6.132190615947039763e-02
6.095496798717329329e-02
6.059019996256975737e-02
6.022759999868874947e-02
5.986716563305118782e-02
5.950889402766990771e-02
5.915278196904969615e-02
5.879882586818727108e-02
5.844702176057126747e-02
5.809736530618228589e-02
5.774985178949282316e-02
5.740447611946733475e-02
5.706123282956221399e-02
5.672011607772577124e-02
5.638111964639827556e-02
5.604423694251189914e-02
5.570946099749075897e-02
5.537678446725093767e-02
5.504619963220039325e-02
5.471769839723908402e-02
5.439127229175884370e-02
5.406691246964346470e-02
5.374460970926870501e-02
5.342435441350219111e-02
5.310613660970354977e-02
5.278994594972429011e-02
5.247577170990787299e-02
5.216360279108973180e-02
5.185342771859716149e-02
5.154523464224945728e-02
5.123901133635779676e-02
5.093474519972533698e-02
5.063242325564715207e-02
5.033203215191022623e-02
5.003355816079351620e-02
4.973698717906788191e-02
4.944230472799614196e-02
4.914949595333303889e-02
4.885854562532523926e-02
4.856943813871136828e-02
4.828215751272195433e-02
4.799668739107949139e-02
4.771301104199839743e-02
4.743111135818499358e-02
4.715097085683760125e-02
4.687257167964639648e-02
4.659589559279354865e-02
4.632092398695316499e-02
4.604763787729122121e-02
4.577601790346570720e-02
4.550604432962648827e-02
4.523769704441539530e-02
4.497095556096619706e-02
4.470579901690456548e-02
4.444220617434814502e-02
4.418015541990646250e-02
4.391962476468104504e-02
4.366059184426530904e-02
4.340303391874461569e-02
4.314692787269627100e-02
4.289225021518948411e-02
4.263897707978543672e-02
4.238708422453722757e-02
4.213654703198989326e-02
4.188734050918040130e-02
4.163943928763763624e-02
4.139281762338245518e-02
4.114744939692763226e-02
4.090330811327785171e-02
4.066036690192977032e-02
4.041859851687194805e-02
4.017797533658490350e-02
3.993846936404109316e-02
3.970005222670486278e-02
3.946269517653254455e-02
3.922640456618481375e-02
3.899125558398756908e-02
3.875727450537778257e-02
3.852448443626436264e-02
3.829290740130305432e-02
3.806256434389650167e-02
3.783347512619418540e-02
3.760565852909245749e-02
3.737913225223453428e-02
3.715391291401045487e-02
3.693001605155715045e-02
3.670745612075840270e-02
3.648624649624486460e-02
3.626639947139403963e-02
3.604792625833026787e-02
3.583083698792478150e-02
3.561514070979564933e-02
3.540084539230782534e-02
3.518795792257310706e-02
3.497648410645012862e-02
3.476642866854441627e-02
3.455779525220833981e-02
3.435058641954114728e-02
3.414480365138893719e-02
3.394044734734463081e-02
3.373751682574806232e-02
3.353601032368588863e-02
3.333592499699165185e-02
3.313725692024574454e-02
3.294000108677539590e-02
3.274415140865472029e-02
3.254970071670468951e-02
3.235664076049312582e-02
3.216496220833472974e-02
3.197465464729101758e-02
3.178570658317039777e-02
3.159810544052814307e-02
3.141183756266636984e-02
3.122688821163407610e-02
3.104324156822706876e-02
3.086088073198806764e-02
3.067978772120662570e-02
3.049994347291916028e-02
3.032132784290896346e-02
3.014391960570614315e-02
2.996769645458770975e-02
2.979263500157751376e-02
2.961871077744627351e-02
2.944589823171156820e-02
2.927417073263780672e-02
2.910350056723629356e-02
2.893385894126518018e-02
2.876521597922947204e-02
2.859754072438105282e-02
2.843080113871862200e-02
2.826496410298778156e-02
2.809999541668097706e-02
2.793585979803751840e-02
2.777252088404356944e-02
2.760994123043213760e-02
2.744808231168312240e-02
2.728690452102325997e-02
2.712636717042615081e-02
2.696642849061225977e-02
2.680704563104890914e-02
2.664817465995026474e-02
2.648977056427736718e-02
2.633178724973812140e-02
2.617417754078727593e-02
2.601704715978332694e-02
2.586061065861152905e-02
2.570489430770100253e-02
2.554992185923229270e-02
2.539571603738787625e-02
2.524229853835219597e-02
2.508969003031160869e-02
2.493791015345444076e-02
2.478697751997096382e-02
2.463690971405338437e-02
2.448772329189587149e-02
2.433943378169451180e-02
2.419205568364736145e-02
2.404560246995441145e-02
2.390008658481760848e-02
2.375551944444084448e-02
2.361191143702993239e-02
2.346927192279265467e-02
2.332760923393873906e-02
2.318693067467985161e-02
2.304724252122961753e-02
2.290855002180357605e-02
2.277085739661923944e-02
2.263416783789606174e-02
2.249848350985543879e-02
2.236380554872072213e-02
2.223013406271717729e-02
2.209746813207204980e-02
2.196580580901452001e-02
2.183514411777570663e-02
2.170547905458869789e-02
2.157680558768848220e-02
2.144911765731203485e-02
2.132240817569826252e-02
2.119666902708802064e-02
2.107189106772410989e-02
2.094806412585126232e-02
2.082517700171616915e-02
2.070321746756747378e-02
2.058217226765575447e-02
2.046202711823354170e-02
2.034276670755529731e-02
2.022437469587744230e-02
2.010683371545833945e-02
1.999012537055830374e-02
1.987423023743959197e-02
1.975912786436639229e-02
1.964479677160485549e-02
1.953121445142307414e-02
1.941835736809108606e-02
1.930620095788088131e-02
1.919471962906637089e-02
1.908388676192343883e-02
1.897367470872990403e-02
1.886405479376553757e-02
1.875499731331204539e-02
1.864647153565307525e-02
1.853844570107424095e-02
1.843088702186308769e-02
1.832376168230910596e-02
1.821703483870374535e-02
1.811067061934036951e-02
1.800463212451432204e-02
1.789888142652288489e-02
1.779337956966526441e-02
1.768808657024264694e-02
1.758296141655812592e-02
1.747796206891676779e-02
1.737304555245581736e-02
1.726834182678356824e-02
1.716401330621690827e-02
1.706008637469591527e-02
1.695658641733638686e-02
1.685353782042979878e-02
1.675096397144332921e-02
1.664888725901984487e-02
1.654732907297789060e-02
1.644630980431172063e-02
1.634584884519127423e-02
1.624596458896219314e-02
1.614667443014580067e-02
1.604799476443910175e-02
1.594994098871482108e-02
1.585252750102135108e-02
1.575576770058279355e-02
1.565967398779894229e-02
1.556425776424525884e-02
1.546952943267292276e-02
1.537549839700879870e-02
1.528217306235544158e-02
1.518956083499110529e-02
1.509766812236972011e-02
1.500650033312092395e-02
1.491606187705004152e-02
1.482635616513808957e-02
1.473738560954178552e-02
1.464915162359351625e-02
1.456165462180138495e-02
1.447489401984917469e-02
1.438886823459636574e-02
1.430357468407813561e-02
1.421900978750533298e-02
1.413516896526452113e-02
1.405204663891794666e-02
1.396963623120354991e-02
1.388793016603497021e-02
1.380691986850151806e-02
1.372659576486821506e-02
1.364694728257577309e-02
1.356796285024059086e-02
1.348962989765476947e-02
1.341193485578608124e-02
1.333486315677800960e-02
1.325839923394972475e-02
1.318252652179609241e-02
1.310722745598766684e-02
1.303248347337069082e-02
1.295827501196710266e-02
1.288458151097453958e-02
1.281138141076632042e-02
1.273865215289146820e-02
1.266637018007468057e-02
1.259451093621636458e-02
1.252304886639261060e-02
1.245195741685520621e-02
1.238120903503163103e-02
1.231077516952504454e-02
1.224062627011431557e-02
1.217073178775399805e-02
1.210106017457433618e-02
1.203157888388127483e-02
1.196225437015643531e-02
1.189305208905714131e-02
1.182393649741641552e-02
1.175487105324296046e-02
1.168581821572118283e-02
1.161673944521116400e-02
1.154759520324869296e-02
1.147834495254524724e-02
1.140894732713866253e-02
1.133958317146908749e-02
1.127045388274234596e-02
1.120158163196723761e-02
1.113298770681220989e-02
1.106469251160535801e-02
1.099671556733443009e-02
1.092907551164681336e-02
1.086179009884955318e-02
1.079487619990934788e-02
1.072834980245253832e-02
1.066222601076512351e-02
1.059651904579273461e-02
1.053124224514067134e-02
1.046640806307387594e-02
1.040202807051693670e-02
1.033811295505410177e-02
1.027467252092925318e-02
1.021171568904593631e-02
1.014925049696734083e-02
1.008728409891630415e-02
1.002582276577532530e-02
9.964871885086528519e-03
9.904435961051711798e-03
9.844518614532310474e-03
9.785122583049412834e-03
9.726249720783763583e-03
9.667900998575737828e-03
9.610076503925377503e-03
9.552775440992370554e-03
9.495996130596050938e-03
9.439736010215409034e-03
9.383991633989074294e-03
9.328758672715334321e-03
9.274031913852122735e-03
9.219805261517024370e-03
9.166071736487277008e-03
9.112823476199755773e-03
9.060051734750999147e-03
9.007746882897188154e-03
8.955898408054156767e-03
8.904494914297390179e-03
8.853524122362012652e-03
8.802972869642808340e-03
8.752827110194209143e-03
8.703071914730294706e-03
8.653691470624797627e-03
8.604669081911094780e-03
8.555987169282214255e-03
8.507627270090838828e-03
8.459570038349295551e-03
8.411795244729566162e-03
8.364281776563269738e-03
8.317007637841692183e-03
8.269949949215756740e-03
8.223084947996041338e-03
8.176387988152775121e-03
8.129833540315829776e-03
8.083395191774731675e-03
8.037045646478654937e-03
7.990756725036430100e-03
7.944499364716528511e-03
7.898243619447072733e-03
7.851958659815838279e-03
7.805612773070248409e-03
7.759173363117375863e-03
7.712606950523946334e-03
7.665884864474149796e-03
7.619228342145557137e-03
7.572774546995540007e-03
7.526534862782432826e-03
7.480520156909283361e-03
7.434740780423837979e-03
7.389206568018559865e-03
7.343926838030618610e-03
7.298910392441890216e-03
7.254165516878962293e-03
7.209699980613122790e-03
7.165521036560375603e-03
7.121635421281430171e-03
7.078049354981704074e-03
7.034768541511327369e-03
6.991798168365126985e-03
6.949142906682648398e-03
6.906806911248141757e-03
6.864793820490566224e-03
6.823106756483591703e-03
6.781748324945585833e-03
6.740720615239635671e-03
6.700025200373532948e-03
6.659663136999776668e-03
6.619634965415577450e-03
6.579940709562844513e-03
6.540579877028206493e-03
6.501551459042994099e-03
6.462853930483247918e-03
6.424485249869719278e-03
6.386442859367860714e-03
6.348723684787838106e-03
6.311324135584524611e-03
6.274240104857503261e-03
6.237466969351063498e-03
6.200999589454200302e-03
6.164832309200620267e-03
6.128958956268738129e-03
6.093372841981676766e-03
6.058066761307266332e-03
6.023032992858043388e-03
5.988263298891255242e-03
5.953748925308857340e-03
5.919480601657512407e-03
5.885448541128595647e-03
5.851642440558175659e-03
5.818051480427053473e-03
5.784664324860718312e-03
5.751469121629369276e-03
5.718453502147927484e-03
5.685604581476004851e-03
5.652908958317939651e-03
5.620352715022761819e-03
5.587921417584212902e-03
5.555600115640755600e-03
5.523373342475539072e-03
5.491225115016446640e-03
5.459138933836047217e-03
5.427097783151622196e-03
5.395084130825176724e-03
5.363079928363402409e-03
5.331066610917718079e-03
5.299027362291861866e-03
5.267069329121227758e-03
5.235263799946878252e-03
5.203615970316581400e-03
5.172130789624919747e-03
5.140812961113257369e-03
5.109666941869754619e-03
5.078696942829382006e-03
5.047906928773888101e-03
5.017300618331835965e-03
4.986881483978571061e-03
4.956652752036235128e-03
4.926617402673778325e-03
4.896778169906932342e-03
4.867137541598238158e-03
4.837697759457024356e-03
4.808460819039413192e-03
4.779428469748336211e-03
4.750602214833504755e-03
4.721983311391442055e-03
4.693572770365456344e-03
4.665371356545652132e-03
4.637379588568941481e-03
4.609597738919015385e-03
4.582025833926380194e-03
4.554663653768324660e-03
4.527510732468932077e-03
4.500566357899097626e-03
4.473829571776493687e-03
4.447299169665605394e-03
4.420973700977702883e-03
4.394851468970852569e-03
4.368930530749928418e-03
4.343208697266584192e-03
4.317683533319286414e-03
4.292352357553285737e-03
4.267212242460629960e-03
4.242260014380173569e-03
4.217492253497551712e-03
4.192905293845211427e-03
4.168495223302384756e-03
4.144257883595100014e-03
4.120188870296193073e-03
4.096283532825279600e-03
4.072536974448787150e-03
4.048944052279930018e-03
4.025499377278717039e-03
4.002197314251962866e-03
3.979031981853268021e-03
3.955997252583037978e-03
3.933086752788469281e-03
3.910293862663550418e-03
3.887611716249079596e-03
3.865033201432635252e-03
3.842550959948606414e-03
3.820157387378167978e-03
3.797844633149292416e-03
3.775604600536756721e-03
3.753428946662119847e-03
3.731309082493753076e-03
3.709236172846812687e-03
3.687201136383250373e-03
3.665194645611824509e-03
3.643227351492017100e-03
3.621353124640608930e-03
3.599578842684311199e-03
3.577907979746014749e-03
3.556343859020389547e-03
3.534889652773863869e-03
3.513548382344648148e-03
3.492322918142714595e-03
3.471215979649805872e-03
3.450230135419443765e-03
3.429367803076908364e-03
3.408631249319262358e-03
3.388022589915329341e-03
3.367543789705705094e-03
3.347196662602761920e-03
3.326982871590633030e-03
3.306903928725232061e-03
3.286961195134236163e-03
3.267155881017091198e-03
3.247489045645022589e-03
3.227961597361014498e-03
3.208574293579834549e-03
3.189327740788009107e-03
3.170222394543838022e-03
3.151258559477398101e-03
3.132436389290525758e-03
3.113755886756839134e-03
3.095216903721718579e-03
3.076819141102314463e-03
3.058562148887555843e-03
3.040445326138131819e-03
3.022467920986511916e-03
3.004629030636927871e-03
2.986927601365383603e-03
2.969362428519658256e-03
2.951932156519294047e-03
2.934635278855611887e-03
2.917470138091696630e-03
2.900434925862401848e-03
2.883527682874361536e-03
2.866746298905967563e-03
2.850088512807393958e-03
2.833551912500576961e-03
2.817133934979222827e-03
2.800831866308816503e-03
2.784642841626602978e-03
2.768563845141606798e-03
2.752591710134614719e-03
2.736723118958192189e-03
2.720954603036668598e-03
2.705282542866143357e-03
2.689703168014493696e-03
2.674212557121357324e-03
2.658806637898151505e-03
2.643481187128058317e-03
2.628231830666028987e-03
2.613054043438792131e-03
2.597943149444838576e-03
2.582894321754436971e-03
2.567902582509619912e-03
2.552962802924193045e-03
2.538069703283735504e-03
2.523217852945589500e-03
2.508401670338877669e-03
2.493615422964483557e-03
2.478853227395063762e-03
2.464109049275050103e-03
2.449376703320637477e-03
2.434660410225423892e-03
2.419989925449252382e-03
2.405371110494749533e-03
2.390807808022124038e-03
2.376303716779366079e-03
2.361862391602264667e-03
2.347487243414395075e-03
2.333181539227122733e-03
2.318948402139610170e-03
2.304790811338803137e-03
2.290711602099446652e-03
2.276713465784070689e-03
2.262798949842995816e-03
2.248970457814340133e-03
2.235230249324004527e-03
2.221580440085689154e-03
2.208023001900878690e-03
2.194559762658850142e-03
2.181192406336675878e-03
2.167922472999212358e-03
2.154751358799114874e-03
2.141680315976824105e-03
2.128710452860570895e-03
2.115842733866383617e-03
2.103077979498074301e-03
2.090416866347252940e-03
2.077859927093315354e-03
2.065407550503447955e-03
2.053059981432634688e-03
2.040817320823641850e-03
2.028679525707035441e-03
2.016646409201166418e-03
2.004717640512176761e-03
1.992892744934004253e-03
1.981171103848372063e-03
1.969551954724800893e-03
1.958034391120595970e-03
1.946617362680855712e-03
1.935299675138473256e-03
1.924079990314126257e-03
1.912956826116290554e-03
1.901928556541227378e-03
1.890993411672990069e-03
1.880149477683426464e-03
1.869394696832170442e-03
1.858726867466652111e-03
1.848143644022088704e-03
1.837642537021488050e-03
1.827220913075654207e-03
1.816875994883175322e-03
1.806604861230437292e-03
1.796404446991612270e-03
1.786271543128663871e-03
1.776202796691350207e-03
1.766194710817216296e-03
1.756243644731602088e-03
1.746345813747635523e-03
1.736497289266235138e-03
1.726693998776114829e-03
1.716931725853773887e-03
1.707206110163508265e-03
1.697512647457400606e-03
1.687846689575325451e-03
1.678203444444950967e-03
1.668577976081732882e-03
1.658965204588920984e-03
1.649359906157554572e-03
1.639756713066462240e-03
1.630150113682267941e-03
1.620534452459382324e-03
1.610903929940011399e-03
1.601252602754148300e-03
1.591574383619577624e-03
1.581881072960349176e-03
1.572204480393186174e-03
1.562549679098367700e-03
1.552921013865505608e-03
1.543322668165737765e-03
1.533758664151732391e-03
1.524232862657677644e-03
1.514748963199293117e-03
1.505310503973820080e-03
1.495920861860025814e-03
1.486583252418207735e-03
1.477300729890183200e-03
1.468076187199300999e-03
1.458912355950432033e-03
1.449811806429972998e-03
1.440776947605849857e-03
1.431810027127509814e-03
1.422913131325931075e-03
1.414088185213613520e-03
1.405336952484582827e-03
1.396661035514395023e-03
1.388061875360126077e-03
1.379540751760383391e-03
1.371098783135296477e-03
1.362736926586520427e-03
1.354455977897240032e-03
1.346256571532160893e-03
1.338139180637519608e-03
1.330104117041075104e-03
1.322151531252111455e-03
1.314281412461443081e-03
1.306493588541404781e-03
1.298787726045862352e-03
1.291163330210203918e-03
1.283619744951343400e-03
1.276156152867723549e-03
1.268771575239309229e-03
1.261464872027595434e-03
1.254234741875599052e-03
1.247079722107863851e-03
1.239998188730461566e-03
1.232988356430986688e-03
1.226048278578563194e-03
1.219175847223837386e-03
1.212368793098982231e-03
1.205624685617699091e-03
1.198940932875211226e-03
1.192314781648271807e-03
1.185743317395157202e-03
1.179223464255668924e-03
1.172751985051137969e-03
1.166325481284417008e-03
1.159940393139888195e-03
1.153592999483457528e-03
1.147279417862555502e-03
1.140995604506142526e-03
1.134737354324700468e-03
1.128500300910240898e-03
1.122279916536298577e-03
1.116071512157934282e-03
1.109870237411736968e-03
1.103671080615818137e-03
1.097468868769818553e-03
1.091258267554902177e-03
1.085033781333758982e-03
1.078789753150607555e-03
1.072520364731188378e-03
1.066219636482771630e-03
1.059881427494150687e-03
1.053499435535644718e-03
1.047067197059101291e-03
1.040597989713268898e-03
1.034140319292176265e-03
1.027699818092690570e-03
1.021279677348625910e-03
1.014882957373468633e-03
1.008512587560370403e-03
1.002171366382156436e-03
9.958619613913176957e-04
9.895869092200152307e-04
9.833486155800812579e-04
9.771493552630141754e-04
9.709912721399851761e-04
9.648763791618316342e-04
9.588065583590607913e-04
9.527835608418514911e-04
9.468090068000481084e-04
9.408843855031681375e-04
9.350110553003955797e-04
9.291902436205836530e-04
9.234230469722576112e-04
9.177104309436082390e-04
9.120532302024991159e-04
9.064521484964606531e-04
9.009077586526925870e-04
8.954205025780660396e-04
8.899906912591185309e-04
8.846185047620597252e-04
8.793039922327663353e-04
8.740470718967845078e-04
8.688475310593314497e-04
8.637050261052911992e-04
8.586190824992196140e-04
8.535890947853398171e-04
8.486143265875440399e-04
8.436939106093961161e-04
8.388268486341262774e-04
8.340120115246365748e-04
8.292481392234963243e-04
8.245338407529444929e-04
8.198675942148907821e-04
8.152477467909119424e-04
8.106725147422561093e-04
8.061399834098393344e-04
8.016481072142464526e-04
7.971947096557336840e-04
7.927774833142240806e-04
7.883939898493121882e-04
7.840416600002600347e-04
7.797177935859990819e-04
7.754195595051316349e-04
7.711439957359270472e-04
7.668880093363262748e-04
7.626483764439377557e-04
7.584217422760390365e-04
7.542046211295789409e-04
7.499933963811730156e-04
7.457843204871085182e-04
7.415735149833399716e-04
7.373569704854916577e-04
7.331305466888582683e-04
7.288899723684020854e-04
7.246308453787562347e-04
7.203486326542219743e-04
7.160386702087695628e-04
7.116961631360403185e-04
7.073247435164672046e-04
7.029623744311345448e-04
6.986157061879294007e-04
6.942863985110988082e-04
6.899760388537988899e-04
6.856861423980906275e-04
6.814181520549446314e-04
6.771734384642369127e-04
6.729532999947509435e-04
6.687589627441791742e-04
6.645915805391189139e-04
6.604522349350769924e-04
6.563419352164660738e-04
6.522616183966058493e-04
6.482121492177250971e-04
6.441943201509574540e-04
6.402088513963462941e-04
6.362563908828403926e-04
6.323375142682958767e-04
6.284527249394779606e-04
6.246024540120567172e-04
6.207870603306116317e-04
6.170068304686281320e-04
6.132619787284985646e-04
6.095526471415243629e-04
6.058789054679121445e-04
6.022407511967778305e-04
5.986381095461428513e-04
5.950708334629363147e-04
5.915387036229957651e-04
5.880414284310642560e-04
5.845786440207939279e-04
5.811499142547428640e-04
5.777547307243763915e-04
5.743925127500684909e-04
5.710626073810983264e-04
5.677642893956546914e-04
5.644967613008318886e-04
5.612591533326314643e-04
5.580505234559639434e-04
5.548698573646449264e-04
5.517160684813993176e-04
5.485879979578579639e-04
5.454844146745587395e-04
5.424040152409484970e-04
5.393454239953792730e-04
5.363071930051122992e-04
5.332878020663147506e-04
5.302856587040609372e-04
5.272990981723338225e-04
5.243263834540220960e-04
5.213657052609232088e-04
5.184151820337405550e-04
5.154728599420850977e-04
5.125367128844761280e-04
5.096046424883385545e-04
5.066744781100061563e-04
5.037439768347188717e-04
5.008108234766238832e-04
4.978726305787769179e-04
4.949269384131392124e-04
4.919712149805808730e-04
4.890028560108781661e-04
4.860264297231087390e-04
4.830579558110361196e-04
4.800991824740825009e-04
4.771511796539752216e-04
4.742149741864113734e-04
4.712915498010591562e-04
4.683818471215586915e-04
4.654867636655196368e-04
4.626071538445241131e-04
4.597438289641240486e-04
4.568975572238423172e-04
4.540690637171738227e-04
4.512590304315830590e-04
4.484680962485069295e-04
4.456968569433520364e-04
4.429458651854960901e-04
4.402156305382888849e-04
4.375066194590495347e-04
4.348192552990697251e-04
4.321539183036108948e-04
4.295109456119055908e-04
4.268906312571582270e-04
4.242932261665428081e-04
4.217189381612058020e-04
4.191679319562633755e-04
4.166403291608028578e-04
4.141362082778834454e-04
4.116556047045339252e-04
4.091985107317555473e-04
4.067648755445192610e-04
4.043546052217671235e-04
4.019675627364131679e-04
3.996035679553409633e-04
3.972623976394063796e-04
3.949437854434353651e-04
3.926474219162246512e-04
3.903729545005430531e-04
3.881199875331289221e-04
3.858880822446929650e-04
3.836767567599157496e-04
3.814854860974488979e-04
3.793137021699160075e-04
3.771607937839101580e-04
3.750261066399968382e-04
3.729089433327113985e-04
3.708085633505603515e-04
3.687241830760218603e-04
3.666549757855439495e-04
3.646000716495467276e-04
3.625585577324205440e-04
3.605294779925264769e-04
3.585118332821976344e-04
3.565045813477366607e-04
3.545066368294186093e-04
3.525168712614883950e-04
3.505341130721619869e-04
3.485571475836272753e-04
3.465847170120417951e-04
3.446155204675351654e-04
3.426482139542071917e-04
3.406814103701287337e-04
3.387136795073421931e-04
3.367435480518599956e-04
3.347694995836665967e-04
3.327899745767165301e-04
3.308033703989354379e-04
3.288080413122204497e-04
3.268038253373280709e-04
3.247983045677464058e-04
3.227938140573718973e-04
3.207915606878940749e-04
3.187927099473943635e-04
3.167983859303439144e-04
3.148096713376058280e-04
3.128276074764334194e-04
3.108531942604708144e-04
3.088873902097538714e-04
3.069311124507082835e-04
3.049852367161518018e-04
3.030505973452921205e-04
3.011279872837280703e-04
2.992181580834498886e-04
2.973218199028379734e-04
2.954396415066644550e-04
2.935722502660916781e-04
2.917202321586729067e-04
2.898841317683529747e-04
2.880644522854668220e-04
2.862616555067410665e-04
2.844761618352927035e-04
2.827083502806293763e-04
2.809585584586505691e-04
2.792270825916457096e-04
2.775141775082960120e-04
2.758200566436727966e-04
2.741448920392385740e-04
2.724888143428471536e-04
2.708519128087425050e-04
2.692342352975604387e-04
2.676357882763268168e-04
2.660565368184585836e-04
2.644964046037642531e-04
2.629552739184422283e-04
2.614329856550827533e-04
2.599293393126664493e-04
2.584440929965646939e-04
2.569769634185404346e-04
2.555276258967467250e-04
2.540957143557284054e-04
2.526808213264205303e-04
2.512824979461489652e-04
2.499002539586313082e-04
2.485335577139751546e-04
2.471818361686797783e-04
2.458444748856347759e-04
2.445208180341207176e-04
2.432101683898095805e-04
2.419117873347634751e-04
2.406248948574362984e-04
2.393486695526721619e-04
2.380822486217061508e-04
2.368247278721647840e-04
2.355751617180647955e-04
2.343325631798144615e-04
2.330959038842125440e-04
2.318641140644486158e-04
2.306360825601037651e-04
2.294106568171491592e-04
2.281866428879478063e-04
2.269628054312528205e-04
2.257378677122084520e-04
2.245105116023501414e-04
2.232793775796038690e-04
2.220430647282868868e-04
2.208001307391070406e-04
2.195490919091629600e-04
2.182884231419448444e-04
2.170165579473329180e-04
2.157318884415992456e-04
2.144327653474060796e-04
2.131174979938066458e-04
2.117844677542454290e-04
2.104379675383692249e-04
2.090823063044598251e-04
2.077193271208832321e-04
2.063508137142977940e-04
2.049784904696550175e-04
2.036040224301979959e-04
2.022290152974631165e-04
2.008550154312786242e-04
1.994835098497651637e-04
1.981159262293365111e-04
1.967536329046980562e-04
1.953979388688484016e-04
1.940500937730781160e-04
1.927112879269701133e-04
1.913826522984004392e-04
1.900652585135367259e-04
1.887601188568399267e-04
1.874681862710627983e-04
1.861903543572506056e-04
1.849274573747415823e-04
1.836802702411657385e-04
1.824495085324462427e-04
1.812358284827981212e-04
1.800398269847289354e-04
1.788620415890391883e-04
1.777029505048211596e-04
1.765629725994602602e-04
1.754424673986338399e-04
1.743417350863117566e-04
1.732610165047567018e-04
1.722004931545233057e-04
1.711602871944592485e-04
1.701404614417040956e-04
1.691410193716900013e-04
1.681619051181420079e-04
1.672030034730769335e-04
1.662641398868047282e-04
1.653450804679273078e-04
1.644455319833390420e-04
1.635651418582272424e-04
1.627034981760710781e-04
1.618601296786426329e-04
1.610345057660062277e-04
1.602260364965185017e-04
1.594340725868289546e-04
1.586579054118790791e-04
1.578967670049032557e-04
1.571498300574280204e-04
1.564162079192723360e-04
1.556949545985479718e-04
1.549850647616586629e-04
1.542854737333011403e-04
1.535950574964641013e-04
1.529126326924288865e-04
1.522369566207694804e-04
1.515667272393519146e-04
1.509005831643351627e-04
1.502371036701702996e-04
1.495748086896007728e-04
1.489121588136629718e-04
1.482475552916851977e-04
1.475793400312886664e-04
1.469057955983866679e-04
1.462251452171850550e-04
1.455355527701823780e-04
1.448351227981692347e-04
1.441219005002291101e-04
1.433938717337377268e-04
1.426489630143629357e-04
1.418850415160657734e-04
1.410999150710990800e-04
1.402913321700085831e-04
1.394569819616321661e-04
1.385944942531001662e-04
1.377014395098357540e-04
1.367755114228256966e-04
1.358286005719503537e-04
1.348705885339910064e-04
1.339035778697867122e-04
1.329295973868231966e-04
1.319506021392340990e-04
1.309684734277991036e-04
1.299850187999452395e-04
1.290019720497465289e-04
1.280209932179236885e-04
1.270436685918452954e-04
1.260715107055260524e-04
1.251059583396279531e-04
1.241483765214600112e-04
1.232000565249778809e-04
1.222622158707851580e-04
1.213359983261315096e-04
1.204224739049139211e-04
1.195226388676763434e-04
1.186374157216095037e-04
1.177676532205518538e-04
1.169141263649881203e-04
1.160775364020502393e-04
1.152585108255171399e-04
1.144576033758145815e-04
1.136752940400159126e-04
1.129119890518408650e-04
1.121680208916563663e-04
1.114436482864763372e-04
1.107390562099615016e-04
1.100543558824201862e-04
1.093895847708071004e-04
1.087447065887241367e-04
1.081196112964202073e-04
1.075141151007910547e-04
1.069279604553799023e-04
1.063608160603764783e-04
1.058122768626176667e-04
1.052818640555873577e-04
1.047690250794162855e-04
1.042731336208826108e-04
1.037934896134110670e-04
1.033293192370735025e-04
1.028797749185887721e-04
1.024439353313226421e-04
1.020208053952882242e-04
1.016093162771452028e-04
1.012083253902004178e-04
1.008166163944077562e-04
1.004328991963679082e-04
1.000558099493289635e-04
9.968391105318561167e-05
9.931569115447967059e-05
9.894956514639997825e-05
9.858387416878224355e-05
9.821688560810946640e-05
9.784679309751136860e-05
9.747171651676474614e-05
9.708970199229342856e-05
9.669872189716806213e-05
9.629667485110663836e-05
9.588138572047389774e-05
9.545060561828156006e-05
9.500201190418844648e-05
9.453320818450018127e-05
9.404172431216978822e-05
9.352501638679690450e-05
9.298046675462832283e-05
9.240538400855774753e-05
9.179700298812576735e-05
9.115267883154655449e-05
9.048970211521203315e-05
8.982173032692288581e-05
8.915015191762294341e-05
8.847630105808907363e-05
8.780145763893192621e-05
8.712684727059478106e-05
8.645364128335434782e-05
8.578295672732053545e-05
8.511585637243627609e-05
8.445334870847828398e-05
8.379638794505593060e-05
8.314587401161196295e-05
8.250265255742238158e-05
8.186751495159619665e-05
8.124119828307618688e-05
8.062438536063777465e-05
8.001770471288979856e-05
7.942173058827432363e-05
7.883698295506645160e-05
7.826392750137498499e-05
7.770297563514145134e-05
7.715448448414076725e-05
7.661875689598103513e-05
7.609604143810347538e-05
7.558653239778291436e-05
7.509036978212697117e-05
7.460763931807664045e-05
7.413837245240608906e-05
7.368254635172260191e-05
7.324008390246708336e-05
7.281085371091320345e-05
7.239467010316803482e-05
7.199129312517184949e-05
7.160042854269798326e-05
7.122172784135339144e-05
7.085478822657783563e-05
7.049915262364445296e-05
7.015430967765956636e-05
6.981969375356264387e-05
6.949468493612663751e-05
6.917860902995741400e-05
6.887073755949417496e-05
6.857028776900933489e-05
6.827642262260842632e-05
6.798825080423043861e-05
6.770482671764734364e-05
6.742515048646440749e-05
6.714816795412009557e-05
6.687277068388604556e-05
6.659779595886729773e-05
6.632202678200188844e-05
6.604419187606116179e-05
6.576296568364966124e-05
6.547696836720507535e-05
6.518476580899852245e-05
6.488486961113413046e-05
6.457573709554930797e-05
6.425577130401464933e-05
6.392332099813390761e-05
6.357668065934431981e-05
6.321409048891605121e-05
6.283373640795256133e-05
6.243375005739054966e-05
6.201220879799983373e-05
6.157681761290101569e-05
6.113828910015320990e-05
6.069746373534530207e-05
6.025514179063549866e-05
5.981209183870667254e-05
5.936905075276683729e-05
5.892672370654840184e-05
5.848578417430867868e-05
5.804687393082974832e-05
5.761060305141833734e-05
5.717754991190633336e-05
5.674826118864999903e-05
5.632325185853051411e-05
5.590300519895381959e-05
5.548797278785051610e-05
5.507857450367633143e-05
5.467519852541140904e-05
5.427820133256077562e-05
5.388790770515425300e-05
5.350461072374629551e-05
5.312857176941649143e-05
5.276002052376883796e-05
5.239915496893224258e-05
5.204614138756038084e-05
5.170111436283158113e-05
5.136417677844927189e-05
5.103539981864133789e-05
5.071482296816052680e-05
5.040245401228438143e-05
5.009826903681511776e-05
4.980221242807999083e-05
4.951419687293076626e-05
4.923410335874405219e-05
4.896178117342125192e-05
4.869704790538846226e-05
4.843968944359677164e-05
4.818945997752181292e-05
4.794608199716407509e-05
4.770924629304880839e-05
4.747861195622599042e-05
4.725380637827054979e-05
4.703442525128199341e-05
4.682003256788466397e-05
4.661016062122769253e-05
4.640431000498491043e-05
4.620194961335509997e-05
4.600251664106163533e-05
4.580541658335272648e-05
4.561002323600136496e-05
4.541567869530524937e-05
4.522169335808700220e-05
4.502734592169389198e-05
4.483188338399797561e-05
4.463452104339611193e-05
4.443444249880985322e-05
4.423079964968568926e-05
4.402271269599475584e-05
4.380927013823297713e-05
4.358952877742104534e-05
4.336251371510438683e-05
4.312721835335339249e-05
4.288260439476301118e-05
4.262760184245305468e-05
4.236110900006808246e-05
4.208199247177737458e-05
4.179145590650956606e-05
4.149557249465342406e-05
4.119542767050241348e-05
4.089176942757087705e-05
4.058532005052691857e-05
4.027677611519277559e-05
3.996680848854431122e-05
3.965606232871131902e-05
3.934515708497748237e-05
3.903468649778025248e-05
3.872521859871122789e-05
3.841729571051558524e-05
3.811143444709249261e-05
3.780812571349496725e-05
3.750783470592980104e-05
3.721100091175793992e-05
3.691803810949392150e-05
3.662933436880623419e-05
3.634525205051725622e-05
3.606612780660313364e-05
3.579227258019413273e-05
3.552397160557414530e-05
3.526148440818102072e-05
3.500504480460645755e-05
3.475486090259597636e-05
3.451111510104917053e-05
3.427396409001927250e-05
3.404353885071347908e-05
3.381994465549284978e-05
3.360326106787224585e-05
3.339354194252058095e-05
3.319081542526046208e-05
3.299508395306841989e-05
3.280632425407485457e-05
3.262448734756399508e-05
3.244949854397407543e-05
3.228125744489705680e-05
3.211963794307881050e-05
3.196448822241909767e-05
3.181563075797148117e-05
3.167286231594352886e-05
3.153595395369656289e-05
3.140465101974580201e-05
3.127867315376034121e-05
3.115771428656310434e-05
3.104144264013099312e-05
3.092950072759466357e-05
3.082150535323870897e-05
3.071704761250153108e-05
3.061569289197544182e-05
3.051698086940666323e-05
3.042042551369520553e-05
3.032551508489498909e-05
3.023171213421379020e-05
3.013845350401324786e-05
3.004515032780892138e-05
2.995118803027018535e-05
2.985592632722029738e-05
2.975869922563636086e-05
2.965881502364941982e-05
2.955555631054432677e-05
2.944817996675980033e-05
2.933591716388846249e-05
2.921797336467674372e-05
2.909352832302505580e-05
2.896173608398757834e-05
2.882172498377239770e-05
2.867259764974145619e-05
2.851343100041052833e-05
2.834327624544939701e-05
2.816115888568157234e-05
2.796607871308447117e-05
2.775726224693582554e-05
2.753735263175785032e-05
2.730823454784740879e-05
2.707103870593407298e-05
2.682686056536728170e-05
2.657676033411628293e-05
2.632176296877004914e-05
2.606285817453757545e-05
2.580100040524744591e-05
2.553710886334812155e-05
2.527206749990786239e-05
2.500672501461466312e-05
2.474189485577654783e-05
2.447835522032111263e-05
2.421684905379584073e-05
2.395808405036801099e-05
2.370273265282464369e-05
2.345143205257277158e-05
2.320478418963902313e-05
2.296335575266989361e-05
2.272767817893168747e-05
2.249824765431044380e-05
2.227552511331221417e-05
2.205993623906263572e-05
2.185187146330724286e-05
2.165168596641134531e-05
2.145969967736002470e-05
2.127619727375832092e-05
2.110142818183091364e-05
2.093560657642234594e-05
2.077891138099695312e-05
2.063148626763884581e-05
2.049343965705206576e-05
2.036484471856032165e-05
2.024573937010716519e-05
2.013612627825597085e-05
2.003597285818988161e-05
1.994521127371191063e-05
1.986373843724481927e-05
1.979141600983117807e-05
1.972807040113337354e-05
1.967349276943358103e-05
1.962743902163382575e-05
1.958962981325588110e-05
1.955975054844134999e-05
1.953745137995163098e-05
1.952234720916793857e-05
1.951401768609128967e-05
1.951200720934248328e-05
1.951582492616216148e-05
1.952494473241072129e-05
1.953880527256841637e-05
1.955680993973526891e-05
1.957832687563111705e-05
1.960268897059558101e-05
1.962919386358813088e-05
1.965710394218801201e-05
1.968564634259425863e-05
1.971401294962574127e-05
1.974136039672111251e-05
1.976681006593884092e-05
1.978944808795719747e-05
1.980832534207424198e-05
1.982245745620785362e-05
1.983082480689572413e-05
1.983237251929532736e-05
1.982601046718395307e-05
1.981061327295870024e-05
1.978502030763644993e-05
1.974803569085390931e-05
1.969842829086760152e-05
1.963493172455378435e-05
1.955624435740862640e-05
1.946102930354801400e-05
1.934791442570767654e-05
1.921549233524315597e-05
1.906232039212968484e-05
1.888692070496253531e-05
1.869287780940279939e-05
1.849203970021635906e-05
1.828594987517357854e-05
1.807563166130370935e-05
1.786206887059927623e-05
1.764620580001572813e-05
1.742894723147166863e-05
1.721115843184880170e-05
1.699366515299187075e-05
1.677725363170890592e-05
1.656267058977084125e-05
1.635062323391178236e-05
1.614177925582893186e-05
1.593676683218252840e-05
1.573617462459609060e-05
1.554055177965605456e-05
1.535040792891202450e-05
1.516621318887669153e-05
1.498839816102580648e-05
1.481735393179836632e-05
1.465343207259631082e-05
1.449694463978473611e-05
1.434816417469183699e-05
1.420732370360886806e-05
1.407461673779029777e-05
1.395019727345357812e-05
1.383417979177930049e-05
1.372663925891115154e-05
1.362761112595589806e-05
1.353709132898348174e-05
1.345503628902686001e-05
1.338136291208211946e-05
1.331594858910845053e-05
1.325863119602811691e-05
1.320920909372653694e-05
1.316744112805218192e-05
1.313304662981663033e-05
1.310570541479456444e-05
1.308505778372376355e-05
1.307070452230512091e-05
1.306220690120260308e-05
1.305908667604329735e-05
1.306082608741737446e-05
1.306686786087811914e-05
1.307661520694190633e-05
1.308943182108820801e-05
1.310464188375960841e-05
1.312153006036177185e-05
1.313934150126348677e-05
1.315728184179660981e-05
1.317451720225612006e-05
1.319017418790009194e-05
1.320333988894969348e-05
1.321306188058919481e-05
1.321834822296596309e-05
1.321816746119047436e-05
1.321144862533628980e-05
1.319708123044007779e-05
1.317391527650160372e-05
1.314076124848374016e-05
1.309639011631244824e-05
1.303953333487678779e-05
1.296888284402892751e-05
1.288309106858411450e-05
1.278077091832073353e-05
1.266070164506454444e-05
1.253136586255902823e-05
1.239833313474022259e-05
1.226226634366652164e-05
1.212380334324946034e-05
1.198355695925348749e-05
1.184211498929611312e-05
1.170004020284787292e-05
1.155787034123228587e-05
1.141611811762602196e-05
1.127527121705865147e-05
1.113579229641281439e-05
1.099811898442416957e-05
1.086266388168137103e-05
1.072981456062620684e-05
1.059993356555337894e-05
1.047335841261065218e-05
1.035040158979881706e-05
1.023135055697165584e-05
1.011646774583607470e-05
1.000599055995190722e-05
9.900131374732048197e-06
9.799077537442409604e-06
9.702991367201913830e-06
9.612010154982578367e-06
9.526246163609370125e-06
9.445786627760310465e-06
9.370693753966443011e-06
9.301004720611815015e-06
9.236731677933568839e-06
9.177861748021797953e-06
9.124357024819651976e-06
9.076154574123299399e-06
9.033166433581929283e-06
8.995279612697790222e-06
8.962356092826110720e-06
8.934232827175170346e-06
8.910721740806264152e-06
8.891609730633716233e-06
8.876658665424879720e-06
8.865605385800131704e-06
8.858161704232868149e-06
8.854014405049515755e-06
8.852825244429526869e-06
8.854230950405377800e-06
8.857843222862570503e-06
8.863248733539635978e-06
8.870009126028125790e-06
8.877661015772617156e-06
8.885715990070711250e-06
8.893660608073043370e-06
8.900956400783267686e-06
8.907039871058062327e-06
8.911322493607134459e-06
8.913190714993210126e-06
8.912005953632052879e-06
8.907104599792445147e-06
8.897798015596189924e-06
8.883372535018115859e-06
8.863089463886092496e-06
8.836185079881003174e-06
8.801870632536746718e-06
8.759332343240266237e-06
8.707731405231503390e-06
8.646203983603478001e-06
8.573861215302177945e-06
8.490936888659482353e-06
8.402351224014465101e-06
8.309325073693913115e-06
8.212470852333211192e-06
8.112380236823834749e-06
8.009624166313454848e-06
7.904752842205904325e-06
7.798295728161155758e-06
7.690761550095436669e-06
7.582638296181056729e-06
7.474393216846517867e-06
7.366472824776488867e-06
7.259302894911779103e-06
7.153288464449452893e-06
7.048813832842651620e-06
6.946242561800713163e-06
6.845917475289143100e-06
6.748160659529587602e-06
6.653273462999941007e-06
6.561536496434182338e-06
6.473209632822485425e-06
6.388532007411190099e-06
6.307722017702784410e-06
6.230977323455985938e-06
6.158474846685614737e-06
6.090370771662679739e-06
6.026800544914356724e-06
5.967878875223973924e-06
5.913699733631073009e-06
5.864336353431314219e-06
5.819841230176543280e-06
5.780246121674770227e-06
5.745562047990163476e-06
5.715779291443087940e-06
5.690867396610049971e-06
5.670775170323722774e-06
5.655430681672954873e-06
5.644741262002759950e-06
5.638593504914320232e-06
5.636853266264984797e-06
5.639365664168264491e-06
5.645955078993843788e-06
5.656425153367571471e-06
5.670558792171459785e-06
5.688118162543692911e-06
5.708844693878622726e-06
5.732459077826763721e-06
5.758661268294809948e-06
5.787130481445595199e-06
5.817525195698144687e-06
5.849483151727642000e-06
5.882621352465445204e-06
5.916536063099080909e-06
5.950802811072213776e-06
5.984976386084707504e-06
6.018590840092582480e-06
6.051159487308027635e-06
6.082174904199403833e-06
6.111108929491213378e-06
6.137412664164159306e-06
6.160516471455092023e-06
6.179829976857036408e-06
6.194742068119187580e-06
6.204620895246887180e-06
6.208813870501671652e-06
6.206647668401228196e-06
6.197428225719410018e-06
6.180440741486247338e-06
6.154949676987933838e-06
6.120198755766823276e-06
6.075410963621447272e-06
6.019788548606485663e-06
5.952516455760691755e-06
5.874847317914145561e-06
5.788930062129704206e-06
5.695687604953524345e-06
5.596014385396773379e-06
5.490776364935598959e-06
5.380811027511253508e-06
5.266927379529908711e-06
5.149905949862778342e-06
5.030498789846086919e-06
4.909429473281038368e-06
4.787393096433947311e-06
4.665056278036040858e-06
4.543057159283588208e-06
4.422005403837873540e-06
4.302482197825157050e-06
4.185040249836810479e-06
4.070203790929118905e-06
3.958468574623407796e-06
3.850301876906019299e-06
3.746142496228275387e-06
3.646400753506597720e-06
3.551458492122330187e-06
3.461669077921857496e-06
3.377357399216578910e-06
3.298819866782881145e-06
3.226324413862229851e-06
3.160110496161030696e-06
3.100389091850729739e-06
3.047342701567780822e-06
3.001125348413636675e-06
2.961862577954802701e-06
2.929651458222751851e-06
2.904560579713985611e-06
2.886630055390018751e-06
2.875871520677368321e-06
2.872268133467577361e-06
2.875774574117189494e-06
2.886317045447759934e-06
2.903793272745860997e-06
2.928072503763077438e-06
2.958995508715990780e-06
2.996374580286211931e-06
3.039993533620352376e-06
3.089607706330043244e-06
3.144943958491935726e-06
3.205700672647650677e-06
3.271547753803858240e-06
3.342126629432238032e-06
3.417050249469473641e-06
3.495903086317279730e-06
3.578241134842320297e-06
3.663591912376337849e-06
3.751454458716057265e-06
3.841299336123228146e-06
3.932568629324621848e-06
4.024675945511951867e-06
4.117006414342028840e-06
4.208916687936630952e-06
4.299734940882557299e-06
4.388760870231646523e-06
4.475265695500669236e-06
4.558492158671484725e-06
4.637654524190932528e-06
4.711938578970870556e-06
4.780501632388192873e-06
4.842472516284734835e-06
4.896951584967412847e-06
4.943010715208117638e-06
4.979693306243763389e-06
5.006014279776297896e-06
5.020960079972624644e-06
5.023488673464701065e-06
5.012529549349503804e-06
4.986983719188995692e-06
4.945723717010133362e-06
4.887593599304947722e-06
4.811408945030428759e-06
4.718472069699121532e-06
4.618571158401274986e-06
4.513601944665732885e-06
4.404425656747811109e-06
4.291870961024477931e-06
4.176733961994471758e-06
4.059778202278272336e-06
3.941734662618065168e-06
3.823301761877879583e-06
3.705145357043383757e-06
3.587898743222019809e-06
3.472162653642971195e-06
3.358505259657129672e-06
3.247462170737226588e-06
3.139536434477632557e-06
3.035198536594495954e-06
2.934886400925703946e-06
2.839005389430859202e-06
2.747928302191383228e-06
2.661995377410359246e-06
2.581514291412638917e-06
2.506760158644812274e-06
2.437975531675193321e-06
2.375370401193895417e-06
2.319122196012711002e-06
2.269375783065195026e-06
2.226243467406643351e-06
2.189804992214083432e-06
2.160107538786313285e-06
2.137165726543839648e-06
2.120961613028921182e-06
2.111444693905557461e-06
2.108531902959488971e-06
2.112107612098201345e-06
2.122023631350912656e-06
2.138099208868584854e-06
2.160121030923921648e-06
2.187843221911379519e-06
2.220987344347128327e-06
2.259242398869098754e-06
2.302264824236959002e-06
2.349678497332116915e-06
2.401074733157735226e-06
2.456012284838675651e-06
2.514017343621584016e-06
2.574583538874827155e-06
2.637171938088521705e-06
2.701211046874538345e-06
2.766096808966431494e-06
2.831192606219558311e-06
2.895829258610984683e-06
2.959305024239537737e-06
3.020885599325787629e-06
3.079804118211996298e-06
3.135261153362217842e-06
3.186424715362235835e-06
3.232430252919570528e-06
3.272380652863492399e-06
3.305346240144977266e-06
3.330364777836779126e-06
3.346441467133390346e-06
3.352548947351027691e-06
3.347627295927659844e-06
3.330584028422981582e-06
3.300294098518456119e-06
3.255599898017265135e-06
3.196058138626281512e-06
3.129901717076312662e-06
3.060191758462746705e-06
2.987511935554363979e-06
2.912424065564386739e-06
2.835468110150458824e-06
2.757162175414626177e-06
2.678002511903423664e-06
2.598463514607743788e-06
2.518997722962923081e-06
2.440035820848721357e-06
2.361986636589299260e-06
2.285237142953308056e-06
2.210152457153754526e-06
2.137075840848089482e-06
2.066328700138189558e-06
1.998210585570332643e-06
1.932999192135280047e-06
1.870950359268155583e-06
1.812298070848526461e-06
1.757254455200383593e-06
1.706009785092125714e-06
1.658732477736618884e-06
1.615569094791107123e-06
1.576644342357273828e-06
1.542061070981223344e-06
1.511900275653476943e-06
1.486221095809003529e-06
1.465060815327169026e-06
1.448434862531770052e-06
1.436336810191027984e-06
1.428738375517585784e-06
1.425589420168512661e-06
1.426817950245298348e-06
1.432330116293854588e-06
1.442010213304516191e-06
1.455720680712048870e-06
1.473302102395625736e-06
1.494573206678854402e-06
1.519330866329763854e-06
1.547350098560806995e-06
1.578384065028865299e-06
1.612164071835218110e-06
1.648399569525593885e-06
1.686778153090137584e-06
1.726965561963417024e-06
1.768605680024429441e-06
1.811320535596564859e-06
1.854710301447673638e-06
1.898353294790013111e-06
1.941805977280261775e-06
1.984602955019539616e-06
2.026256978553347973e-06
2.066258942871651485e-06
2.104077887408823248e-06
2.139160996043659637e-06
2.170933597099387084e-06
2.198799163343636664e-06
2.222139311988479251e-06
2.240313804690402218e-06
2.252660547550321728e-06
2.258495591113572985e-06
2.257113130369909391e-06
2.247785504753513981e-06
2.229763198142993491e-06
2.202274838861373705e-06
2.164552170078755350e-06
2.119471488251570596e-06
2.069829033521861908e-06
2.016194301595281456e-06
1.959117925951651813e-06
1.899131677844950710e-06
1.836748466303378376e-06
1.772462338129255893e-06
1.706748477899092321e-06
1.640063207963568822e-06
1.572843988447518325e-06
1.505509417250003034e-06
1.438459230044199017e-06
1.372074300277473287e-06
1.306716639171364322e-06
1.242729395721563638e-06
1.180436856697989484e-06
1.120144446644675881e-06
1.062138727879848216e-06
1.006687400495900801e-06
9.540393023593881859e-07
9.044244091110785250e-07
8.580538341658667545e-07
8.151198287128353674e-07
7.757957817152374731e-07
7.402362199104891738e-07
7.085768078102061988e-07
6.809343477001467299e-07
6.574067796402503648e-07
6.380731814646283761e-07
6.229937687815584176e-07
6.122098949735052763e-07
6.057440511970880504e-07
6.035998663831040772e-07
6.057621072365223693e-07
6.121966782364863670e-07
6.228506216363025037e-07
6.376521174634562994e-07
6.565104835196030430e-07
6.793161753805680047e-07
7.059407863963563881e-07
7.362370476911238960e-07
7.700388281632165410e-07
8.071611344851492580e-07
8.474001111036039979e-07
8.905330402394477278e-07
9.363183418876871140e-07
9.844955738175263324e-07
1.034785431572341446e-06
1.086889748469669816e-06
1.140491495601237208e-06
1.195254781832906123e-06
1.250824853804739958e-06
1.306828095930971670e-06
1.362872030399993183e-06
1.418545317174400709e-06
1.473417753990896699e-06
1.527040276360410126e-06
1.578944957568028511e-06
1.628645008673013587e-06
1.675634778508796013e-06
1.719389753682957156e-06
1.759366558577276107e-06
1.795002955347700452e-06
1.825717843924346068e-06
1.850911262011494999e-06
1.869964385087595458e-06
1.882239526405289357e-06
1.887080136991368683e-06
1.883810805646812133e-06
1.871737258946751234e-06
1.850146361240513962e-06
1.818306114651577520e-06
1.775601204509516488e-06
1.723914130526428154e-06
1.664740471401035244e-06
1.598922641383616905e-06
1.527276861245134720e-06
1.450593158277299200e-06
1.369635366292553903e-06
1.285141125624050449e-06
1.197821883125745498e-06
1.108362892172256976e-06
1.017423212658959571e-06
9.256357110019603799e-07
8.336070601380730811e-07
7.419177395249221127e-07
6.511220351407872454e-07
5.617480394847064955e-07
4.742976515764509268e-07
3.892465769565002976e-07
3.070443276861391991e-07
2.281142223473122132e-07
1.528533860427219559e-07
8.163275039580239621e-08
1.479705355070339778e-08
-4.733515982763813052e-08
-1.044715385536070783e-07
-1.563459249208381356e-07
-2.027183547022344280e-07
-2.433750571499745043e-07
-2.781284549954704088e-07
-3.068171644494375609e-07
-3.293059952018477454e-07
-3.454859504219380060e-07
-3.552742267582148804e-07
-3.586142143384438127e-07
-3.554754967696728701e-07
-3.458538511382026732e-07
-3.297712480096092662e-07
-3.072758514287284463e-07
-2.784420189196786339e-07
-2.433703014858299560e-07
-2.021874436098279628e-07
-1.550463832535804990e-07
-1.021262518582509272e-07
-4.363237434431064440e-08
2.020373088853969257e-08
8.912435196132357986e-08
1.628455835157897256e-07
2.410573267144552483e-07
3.234232892404887869e-07
4.095809852978680481e-07
4.991417356112715986e-07
5.916906674261214280e-07
6.867867145085992546e-07
7.839626171455256111e-07
8.827249221445511684e-07
9.825539828340139044e-07
1.082903959063007502e-06
1.183202817201364410e-06
1.282852330139579500e-06
1.381228077288961161e-06
1.477679444581516311e-06
1.571529624470000798e-06
1.662075615927910716e-06
1.748588224449398974e-06
1.830312062049451688e-06
1.906465547263727246e-06
1.976240905148645250e-06
2.038804167281360463e-06
2.093295171759706275e-06
2.138827563202326839e-06
2.174488792748551494e-06
2.199340118058444324e-06
2.212416603312821516e-06
2.212727119213207318e-06
2.199254342981897140e-06
2.170954758361871158e-06
2.126758655616891725e-06
2.065570131531369535e-06
1.989247140091166001e-06
1.902405637452508296e-06
1.806314545765063983e-06
1.702171804857898455e-06
1.591135328626463595e-06
1.474323005032723772e-06
1.352812696104969710e-06
1.227642237937939185e-06
1.099809440692788863e-06
9.702720885970568182e-07
8.399479399448094961e-07
7.097147270964212693e-07
5.804101564787220352e-07
4.528319085849580401e-07
3.277376379747605391e-07
2.058449732742849212e-07
8.783151717599662175e-08
-2.566515356118361126e-08
-1.340474881119182574e-07
-2.367579615844784348e-07
-3.332790750206318798e-07
-4.231333553958148949e-07
-5.058833556190167286e-07
-5.811316545328083747e-07
-6.485208569133603597e-07
-7.077335934703669337e-07
-7.584925208471684662e-07
-8.005603216206616613e-07
-8.337397043013241209e-07
-8.578734033332253566e-07
-8.728441790939946023e-07
-8.785748178948657070e-07
-8.750281319806466416e-07
-8.622069595297250046e-07
-8.401541646540612457e-07
-8.089526373992276296e-07
-7.687252937443510611e-07
-7.196350756021435782e-07
-6.618849508189087050e-07
-5.957179131745050295e-07
-5.214169823824279415e-07
-4.393052040897101073e-07
-3.497456498769756789e-07
-2.531414172584275890e-07
-1.499356296818272219e-07
-4.061143652860241070e-08
7.430798688631688769e-08
1.942594393143992776e-07
3.186396935735307710e-07
4.468054965480478223e-07
5.780735691885984141e-07
7.117206065123542398e-07
8.469832776028766601e-07
9.830582256101302557e-07
1.119102067750553555e-06
1.254231395306883908e-06
1.387522773628379201e-06
1.518012742130695032e-06
1.644697814295885564e-06
1.766534477672487797e-06
1.882439193875309605e-06
1.991288398585727040e-06
2.091918501551464105e-06
2.183125886586685083e-06
2.263666911571980555e-06
2.332257908454292869e-06
2.387575183247070715e-06
2.428255016030147160e-06
2.452893660949743876e-06
2.460047346218547805e-06
2.448232274115621364e-06
2.415924620986481650e-06
2.361560537243044108e-06
2.283536147363641592e-06
2.188896091952078824e-06
2.087115005414485412e-06
1.979274047572807967e-06
1.866412176806852193e-06
1.749528877700942818e-06
1.629584161043889082e-06
1.507498563829122801e-06
1.384153149254492112e-06
1.260389506722397853e-06
1.137009751839761366e-06
1.014776526417986814e-06
8.944129984731030489e-07
7.766028622255522857e-07
6.619903381003321866e-07
5.511801727269579585e-07
4.447376389394363063e-07
3.431885357763806296e-07
2.470191884808348394e-07
1.566764485003913079e-07
7.256769348716122212e-08
-4.939172702244897921e-09
-7.551572000663334277e-08
-1.388729921603585037e-07
-1.947615066932305462e-07
-2.429712549305450561e-07
-2.833317019930817689e-07
-3.157117867970749238e-07
-3.400199220542717087e-07
-3.562039942718873679e-07
-3.642513637526204483e-07
-3.641888645946460233e-07
-3.560828046916245865e-07
-3.400389657326931580e-07
-3.162026032024762960e-07
-2.847584463810738143e-07
-2.459306983440535832e-07
-1.999830359625040448e-07
-1.472186099029571336e-07
-8.798004462744079236e-08
-2.264943839345440795e-08
4.835163674603076486e-08
1.245621349425131583e-07
2.054815365520570297e-07
2.905698481352365575e-07
3.792476024571396527e-07
4.708958584874056521e-07
5.648562014001067332e-07
6.604307425739217683e-07
7.568821195920132925e-07
8.534334962420700674e-07
9.492685625163151279e-07
1.043531534611427643e-06
1.135327154928672724e-06
1.223720692073819686e-06
1.307737940857141413e-06
1.386365222293464118e-06
1.458549383602056811e-06
1.523197798206797099e-06
1.579178365736027832e-06
1.625319512022629731e-06
1.660410189104005297e-06
1.683199875222061447e-06
1.692398574823232171e-06
1.686676818558466886e-06
1.664665663283248222e-06
1.624956692057554120e-06
1.566683989005390532e-06
1.500031333408111364e-06
1.429703050817082600e-06
1.356346307714129021e-06
1.280583216131303410e-06
1.203010833650972747e-06
1.124201163405688394e-06
1.044701154078272285e-06
9.650326999017955361e-07
8.856926406595565308e-07
8.071527616851697500e-07
7.298597938624313071e-07
6.542354136254095800e-07
5.806762429584213885e-07
5.095538493960134655e-07
4.412147460230420778e-07
3.759803914745516890e-07
3.141471899358560626e-07
2.559864911425185686e-07
2.017445903803369369e-07
1.516427284854033967e-07
1.058770918440129852e-07
6.461881239272559259e-08
2.801396761835135081e-08
-3.816419442060589549e-09
-3.077638020118351930e-08
-5.279500052147098068e-08
-6.982642071511653327e-08
-8.184983554406603597e-08
-8.886949422001383537e-08
-9.091470040440445976e-08
-8.803981220843579558e-08
-8.032424219305654627e-08
-6.787245736896686755e-08
-5.081397919660799130e-08
-2.930338358619271869e-08
-3.520300897664339126e-09
2.633058405927245305e-08
6.001953202516616991e-08
9.729174929082297681e-08
1.378673876972700583e-07
1.814415446358108869e-07
2.276842630479892243e-07
2.762405314255999211e-07
3.267302838106992926e-07
3.787483997955494270e-07
4.318647045227073350e-07
4.856239686849620580e-07
5.395459085253549966e-07
5.931251858371873225e-07
6.458314079639675681e-07
6.971091277994971767e-07
7.463778437878138575e-07
7.930319999232023850e-07
8.364409857502080458e-07
8.759491363635910048e-07
9.108757324083990437e-07
9.405150000799137748e-07
9.641361111236621821e-07
9.809831828354336669e-07
9.902752780612484968e-07
9.912064051973885101e-07
9.829455181903847281e-07
9.646365165370038027e-07
9.353982452842846501e-07
8.975609810803985773e-07
8.559118041950625543e-07
8.110008817314809929e-07
7.633163380400934965e-07
7.133287524039513045e-07
6.614911590387756313e-07
6.082390470928710577e-07
5.539903606471825992e-07
4.991454987152821542e-07
4.440873152433519860e-07
3.891811191102477215e-07
3.347746741274043303e-07
2.811981990388992288e-07
2.287643675214354452e-07
1.777683081843292317e-07
1.284876045695658632e-07
8.118229515171292154e-08
3.609487333797980022e-08
-6.549712531797542486e-09
-4.654405918516907721e-08
-8.369830841702316375e-08
-1.178401470896568548e-07
-1.488148071327288857e-07
-1.764850655432722740e-07
-2.007312443856994016e-07
-2.214512107917761802e-07
-2.385603769606624973e-07
-2.519917001588857466e-07
-2.616956827203476035e-07
-2.676403720463212731e-07
-2.698113606054525485e-07
-2.682117859337648933e-07
-2.628623306346522414e-07
-2.538012223788849266e-07
-2.410842339045988828e-07
-2.247846830173183023e-07
-2.049934325899291656e-07
-1.818188905626951238e-07
-1.553870099432505100e-07
-1.258412888065988576e-07
-9.334277029514064016e-08
-5.807004261862499078e-08
-2.021923905418210097e-08
1.999596205368482609e-08
6.234433729310518714e-08
1.065771181848086858e-07
1.524279911821775308e-07
1.996130976712141430e-07
2.478310339705474022e-07
2.967628513314423882e-07
3.460720559377524171e-07
3.954046089059992982e-07
4.443889262853153118e-07
4.926358790574584562e-07
5.397387931368282234e-07
5.852734493704122361e-07
6.287980835378593042e-07
6.698533863514409911e-07
7.079625034560397546e-07
7.426310354291846286e-07
7.733470377810064361e-07
7.995810209542803527e-07
8.207859503244064248e-07
8.363972461993997225e-07
8.458327838199252804e-07
8.484928933592438869e-07
8.437603599232662946e-07
8.310004235505198682e-07
8.095607792121639371e-07
7.789853131354222057e-07
7.414512946901549752e-07
6.982253313382014392e-07
6.499574803239242939e-07
5.972773804301797484e-07
5.407942519783010071e-07
4.810968968281639151e-07
4.187536983780897610e-07
3.543126215649088572e-07
2.883012128639452405e-07
2.212266002889974023e-07
1.535754933924146269e-07
8.581418326498290741e-08
1.838854253600006642e-08
-4.827597462674192548e-08
-1.137743325169760080e-07
-1.777219138898862336e-07
-2.397545199622191519e-07
-2.995283704122084243e-07
-3.567201033795945169e-07
-4.110267754656396301e-07
-4.621658617330662882e-07
-5.098752557061496661e-07
-5.539132693706561795e-07
-5.940586331738591552e-07
-6.301104960245470892e-07
-6.618884252929848952e-07
-6.892324068109744678e-07
-7.120028448718169887e-07
-7.300805622303156804e-07
-7.433668001027844878e-07
-7.517832181670345259e-07
-7.552718945623944084e-07
-7.537953258896971188e-07
-7.473364272112749281e-07
-7.358985320509714654e-07
-7.195053923941423526e-07
-6.982011786876410171e-07
-6.720504798398328791e-07
-6.411383032205839172e-07
-6.055700746612619387e-07
-5.654716384547670725e-07
-5.209892573554815829e-07
-4.722896125792986684e-07
-4.195598038036214032e-07
-3.630073491673390198e-07
-3.028601852709003895e-07
-2.393666671762119549e-07
-1.727955684067004101e-07
-1.034360809472973486e-07
-3.159781524442560433e-08
4.238919979392694988e-08
1.181745167983332932e-07
1.953872699378236007e-07
2.736361749199417832e-07
3.525095289907293932e-07
4.315752109346638979e-07
5.103806810747911334e-07
5.884529812726046029e-07
6.652987349281172624e-07
7.404041469798383338e-07
8.132350039047218469e-07
8.832366737182652132e-07
9.498341059744382871e-07
1.012431831765722011e-06
1.070413963723088618e-06
1.123144196015965418e-06
1.169965804352311350e-06
1.210201645978583526e-06
1.243154159679708216e-06
1.268105365779119817e-06
1.284316866138740730e-06
1.291029844158988141e-06
1.287465064778768301e-06
1.272822874475494526e-06
1.246283201265053316e-06
1.207005554701860896e-06
1.154594082502600183e-06
1.091345361750078746e-06
1.018641891548932088e-06
9.375697539353113575e-07
8.491809217180268551e-07
7.544932584784103906e-07
6.544905185704035863e-07
5.501223471205374428e-07
4.423042800279009984e-07
3.319177439642642548e-07
2.198100563738950061e-07
1.067944254736796472e-07
-6.350049746906684408e-09
-1.188783795258307075e-07
-2.300796833283756364e-07
-3.392771898473304927e-07
-4.458282370028649563e-07
-5.491242719425590115e-07
-6.485908510414306872e-07
-7.436876399017998967e-07
-8.339084133535880750e-07
-9.187810554539626373e-07
-9.978675594875165500e-07
-1.070764027966385856e-06
-1.137100672629945166e-06
-1.196541814445138428e-06
-1.248785883606205753e-06
-1.293565419534814711e-06
-1.330647070880117505e-06
-1.359831595518587488e-06
-1.380953860554178837e-06
-1.393882842318210080e-06
-1.398521626369424659e-06
-1.394807407493990513e-06
-1.382711489705473810e-06
-1.362239286244845307e-06
-1.333430319580499831e-06
-1.296358221408260935e-06
-1.251130732651300007e-06
-1.197889703460291702e-06
-1.136811093213213195e-06
-1.068104970515538575e-06
-9.920155132001689608e-07
-9.088210083272842779e-07
-8.188338521846625837e-07
-7.224005502872923404e-07
-6.199017173777249926e-07
-5.117520774259318181e-07
-3.984004636291203338e-07
-2.803298184121491304e-07
-1.580571934270338399e-07
-3.213374955339987493e-08
9.685524310171789446e-08
2.282904052040843580e-07
3.615182481917480046e-07
4.958511742756727028e-07
6.305674764391663773e-07
7.649113384381207192e-07
8.980928348012651901e-07
1.029287930829598768e-06
1.157638482597010825e-06
1.282252236949750458e-06
1.402202831506678693e-06
1.516529794659454413e-06
1.624238545572021685e-06
1.724300394181200995e-06
1.815652541196209189e-06
1.897198078098851959e-06
1.967805987143696431e-06
2.026311141357703761e-06
2.071514304540557151e-06
2.102182131264433994e-06
2.117047166874176553e-06
2.114807847487159400e-06
2.094128499993402074e-06
2.053639342055431854e-06
1.991936482108432001e-06
1.908257253579664301e-06
1.811349673704267882e-06
1.705322893634668803e-06
1.591442994176286214e-06
1.470931673967159144e-06
1.344966249477783020e-06
1.214679655010877161e-06
1.081160442701892359e-06
9.454527825184211345e-07
8.085564622607250122e-07
6.714268875615079425e-07
5.349750818856812479e-07
4.000676865309080540e-07
2.675269606269836851e-07
1.381307811363752237e-07
1.261264285398497700e-08
-1.083383415930589522e-07
-2.240774417449065160e-07
-3.340043093095358691e-07
-4.375629781622839009e-07
-5.342418643460634997e-07
-6.235737660715075478e-07
-7.051358637165983449e-07
-7.785497198270691018e-07
-8.434812791160727501e-07
-8.996408684643394910e-07
-9.467831969202530276e-07
-9.847073556996358423e-07
-1.013256818185971967e-06
-1.032319439930231222e-06
-1.041827458650967051e-06
-1.041757494234305507e-06
-1.032130548733916880e-06
-1.013012006371025856e-06
-9.845116335344284637e-07
-9.467835787804954593e-07
-9.000263728330986347e-07
-8.444829285837556610e-07
-7.804405410914348470e-07
-7.082308875827512276e-07
-6.282300274518966831e-07
-5.408584022604925560e-07
-4.465808357378954295e-07
-3.459065337808231628e-07
-2.393890844537153033e-07
-1.276264579885687622e-07
-1.126100678476883179e-08
1.090205345905014862e-07
2.324870494027574182e-07
3.583630387497452805e-07
4.858286215616637660e-07
6.140195346013655385e-07
7.420271324638464719e-07
8.688983875768254439e-07
9.936358902002721152e-07
1.115197848426577819e-06
1.232498088180784258e-06
1.344406053220117640e-06
1.449746805134490329e-06
1.547301023346064625e-06
1.635805005109471723e-06
1.713950665511931144e-06
1.780385537472895192e-06
1.833712771744432448e-06
1.872491136910933853e-06
1.895235019389282955e-06
1.900414423428832623e-06
1.886454971111298529e-06
1.851737902350895094e-06
1.794600074894247404e-06
1.715972045151991896e-06
1.629974948732343660e-06
1.539670842596059367e-06
1.445868629689772617e-06
1.349345261325149383e-06
1.250845737178742324e-06
1.151083105291815233e-06
1.050738462070735646e-06
9.504609522865249496e-07
8.508677690752553324e-07
7.525441539378769838e-07
6.560433967400522898e-07
5.618868357125453616e-07
4.705638574507833790e-07
3.825318969152335193e-07
2.982164374312377865e-07
2.180110106888732504e-07
1.422771967432836605e-07
7.134462401431712711e-08
5.510969286829783139e-09
-5.495804228945207086e-08
-1.098286372000245049e-07
-1.588989935653738724e-07
-2.019992411412230854e-07
-2.389914613183317143e-07
-2.697696871225910676e-07
-2.942599032150642144e-07
-3.124200458918737520e-07
-3.242400030843089558e-07
-3.297416143587453117e-07
-3.289786709166961840e-07
-3.220369155947886761e-07
-3.090340428647814174e-07
-2.901196988335294119e-07
-2.654754812430276601e-07
-2.353149394704065006e-07
-1.998835745278608824e-07
-1.594588390627820791e-07
-1.143501373575967521e-07
-6.489882532991412317e-08
-1.147821053248023395e-08
4.550644784693724993e-08
1.056179389853169521e-07
1.683871004246605535e-07
2.333128180717405881e-07
2.998620261982035693e-07
3.674697074406966214e-07
4.355388928005894411e-07
5.034406616442896052e-07
5.705141417029541561e-07
6.360665090726477854e-07
6.993729882144029728e-07
7.596768519539908639e-07
8.161894214822126497e-07
8.680900663546391037e-07
9.145262044917291668e-07
9.546133021789032152e-07
9.874348740663524784e-07
1.012042483169253550e-06
1.027455740867575477e-06
1.032662306906215706e-06
1.026617889394935924e-06
1.008246244808390430e-06
9.764391779860806115e-07
9.325162131689554539e-07
8.844747906549311587e-07
8.334946422328134493e-07
7.800749231112501947e-07
7.246957927840451482e-07
6.678184150303667414e-07
6.098849579146611573e-07
5.513185937865497335e-07
4.925234992810594610e-07
4.338848553183594513e-07
3.757688471039924937e-07
3.185226641287745761e-07
2.624745001686987468e-07
2.079335532851606371e-07
1.551900258247044573e-07
1.045151244192422722e-07
5.616105998595574544e-08
1.036104772721852985e-08
-3.267069286921431447e-08
-7.273893803041437280e-08
-1.096674596981050694e-07
-1.432990255287424531e-07
-1.734953988935646432e-07
-2.001373388784643507e-07
-2.231246002841231328e-07
-2.423759336259021265e-07
-2.578290851338975284e-07
-2.694407967529560533e-07
-2.771868061426194539e-07
-2.810618466771783068e-07
-2.810796474456328377e-07
-2.772729332517191792e-07
-2.696934246138915832e-07
-2.584118377653416908e-07
-2.435178846539688863e-07
-2.251202729424126961e-07
-2.033467060080477063e-07
-1.783438829429376116e-07
-1.502774985539237301e-07
-1.193322433625136182e-07
-8.571180360498716165e-08
-4.963886123235591818e-08
-1.135509391029620156e-08
2.887882498070914609e-08
7.078322634553433754e-08
1.140594453742659038e-07
1.583898215422548922e-07
2.034376986102089819e-07
2.488474246240032771e-07
2.942443519148946068e-07
3.392348370993357071e-07
3.834062410790495479e-07
4.263269290411114956e-07
4.675462704577729179e-07
5.065946390866579077e-07
5.429834129705839238e-07
5.762049744376616346e-07
6.057327101013212824e-07
6.310210108601991806e-07
6.515052718982697452e-07
6.666018926847389805e-07
6.757082769740930774e-07
6.782028328061115424e-07
6.734449725058309871e-07
6.607751126835650334e-07
6.395146742348982784e-07
6.100644026374725807e-07
5.757711271258028540e-07
5.373981284709104222e-07
4.954585929843092398e-07
4.504487402550671858e-07
4.028478231497484652e-07
3.531181278123244058e-07
3.017049736643656289e-07
2.490367134048178504e-07
1.955247330102030509e-07
1.415634517345348255e-07
8.753032210922288058e-08
3.378582994328992756e-08
-1.932650567687533338e-08
-7.148013238730264328e-08
-1.223654645465344169e-07
-1.716898832357110811e-07
-2.191777362583693755e-07
-2.645703381406671334e-07
-3.076259701311907938e-07
-3.481198802010434929e-07
-3.858442830439061561e-07
-4.206083600758845029e-07
-4.522382594356735827e-07
-4.805770959844220385e-07
-5.054849513057947864e-07
-5.268388737060107092e-07
-5.445328782137444005e-07
-5.584779465802295026e-07
-5.686020272791752736e-07
-5.748500355068114805e-07
-5.771838531818896695e-07
-5.755823289456607198e-07
-5.700412781618877607e-07
-5.605734829168468068e-07
-5.472086920193328994e-07
-5.299936210006274952e-07
-5.089919521145588177e-07
-4.842843343374211774e-07
-4.559683833680545926e-07
-4.241586816278178964e-07
-3.889867782605285970e-07
-3.506011891325865450e-07
-3.091673968328193494e-07
-2.648678506726326204e-07
-2.179019666859472889e-07
-1.684861276291169148e-07
-1.168536829811073638e-07
-6.325494894329235509e-08
-7.957208439636314479e-09
4.875528888338397629e-08
1.065813266568711766e-07
1.652027217892912348e-07
2.242843244667295097e-07
2.834740181526669952e-07
3.424027195880597824e-07
4.006843787914706146e-07
4.579159790588077362e-07
5.136775369636048905e-07
5.675321023567809203e-07
6.190257583667462834e-07
6.676876213995076073e-07
7.130298411384209912e-07
7.545476005444569159e-07
7.917191158559902849e-07
8.240056365888943395e-07
8.508514455365788811e-07
8.716838587698936036e-07
8.859132256372186202e-07
8.929329287643739363e-07
8.921193840547254349e-07
8.828320406890762447e-07
8.644133811257672188e-07
8.361889211005669269e-07
7.977653387170719995e-07
7.504681431473427672e-07
6.953110573263271919e-07
6.331621051992101840e-07
5.648627451453865832e-07
4.912278699786993859e-07
4.130458069473459368e-07
3.310783177337325565e-07
2.460605984547898496e-07
1.587012796616021280e-07
6.968242633974114156e-08
-2.034046209087378799e-08
-1.107384517761351152e-07
-2.009091744273870818e-07
-2.902768273218366339e-07
-3.782921733021922677e-07
-4.644325407768226371e-07
-5.482018237199003370e-07
-6.291304816710620317e-07
-7.067755397357885607e-07
-7.807205885850777722e-07
-8.505757844555929660e-07
-9.159778491497738543e-07
-9.765900700355612764e-07
-1.032102300046697895e-06
-1.082230957682477475e-06
-1.126719027007863680e-06
-1.165336057653551056e-06
-1.197878164815796477e-06
-1.224168029256594688e-06
-1.244054897303539606e-06
-1.257414580849899702e-06
-1.264149457354615045e-06
-1.264188469842266797e-06
-1.257487126903095010e-06
-1.244027502692999894e-06
-1.223818236933550285e-06
-1.196894534911934519e-06
-1.163318167481056572e-06
-1.123177471059404764e-06
-1.076587347631179457e-06
-1.023689264746253874e-06
-9.646512555200637757e-07
-8.996679186338357339e-07
-8.289604183343063419e-07
-7.527764844339792884e-07
-6.713904123110277364e-07
-5.851030629091431286e-07
-4.942418627378634121e-07
-3.991608038721766274e-07
-3.002404439528986846e-07
-1.978879061864855345e-07
-9.253687934489721922e-08
1.535238223402117444e-08
1.252930586470153358e-07
2.367717644249859319e-07
3.492485485331772841e-07
4.621568943713538683e-07
5.749037197733811401e-07
6.868693770077366126e-07
7.974076527770121191e-07
9.058457682181755464e-07
1.011484378902718006e-06
1.113597574836219626e-06
1.211432880458837755e-06
1.304211254644926121e-06
1.391127090703155847e-06
1.471348216376705823e-06
1.544015893842915000e-06
1.608244819713620564e-06
1.663123125034892397e-06
1.707712375287155468e-06
1.741047570385251246e-06
1.762137144678296035e-06
1.769962966949772658e-06
1.763480340417498280e-06
1.741618002733637529e-06
1.703278125984702076e-06
1.647336316691577741e-06
1.575303809485636948e-06
1.503451952190767774e-06
1.434674151413725346e-06
1.368885237112905102e-06
1.305999383497674903e-06
1.245930109028074760e-06
1.188590276415071370e-06
1.133892092620444397e-06
1.081747108856700081e-06
1.032066220587284261e-06
9.847596675263469034e-07
9.397370336389410462e-07
8.969072471409341808e-07
8.561785804989403818e-07
8.174586504304867496e-07
7.806544179038299218e-07
7.456721881381112917e-07
7.124176106032871285e-07
6.807956790200762729e-07
6.507107313600906858e-07
6.220664498456900765e-07
5.947658609501060989e-07
5.687113353973847532e-07
5.438045881623475284e-07
5.199466784706930460e-07
4.970380097988827106e-07
4.749783298742383308e-07
